##NAMES=Beidellite
##RRUFFID=R070244
##IDEAL CHEMISTRY=(Na,Ca)_0.3_Al_2_(Si,Al)_4_O_10_(OH)_2_&#183;nH_2_O
##LOCALITY=Fort Sandeman, Pakistan
##OWNER=RRUFF
##SOURCE=Michael Scott
##DESCRIPTION=Matted fibrous tan crystals (mountain leather)
##STATUS=The identification of this mineral is not yet confirmed.
##URL=rruff.info/R070244
120.2527, 0.0000000E+00
120.7348, 345.2168
121.2169, 620.8457
121.6990, 777.1748
122.1812, 958.5078
122.6633, 561.6748
123.1454, 124.3242
123.6275, 177.5645
124.1096, 285.8125
124.5917, 217.7871
125.0739, 25.35352
125.5560, 288.7715
126.0381, 689.6777
126.5202, 1146.217
127.0023, 1656.963
127.4844, 2205.309
127.9666, 2766.619
128.4487, 3339.010
128.9308, 3935.330
129.4129, 4529.566
129.8950, 5142.971
130.3772, 5812.105
130.8593, 6565.973
131.3414, 7391.164
131.8235, 8249.996
132.3056, 9125.711
132.7877, 10033.69
133.2699, 10987.19
133.7520, 11994.11
134.2341, 13028.34
134.7162, 14089.34
135.1983, 15184.33
135.6804, 16264.39
136.1626, 17329.49
136.6447, 18349.00
137.1268, 19245.64
137.6089, 19985.29
138.0910, 20677.96
138.5731, 21356.45
139.0553, 22052.22
139.5374, 22658.91
140.0195, 23153.91
140.5016, 23555.06
140.9837, 23873.45
141.4658, 24077.95
141.9480, 24263.17
142.4301, 24490.45
142.9122, 24789.98
143.3943, 25062.12
143.8764, 25291.30
144.3585, 25471.75
144.8407, 25687.08
145.3228, 25950.20
145.8049, 26232.95
146.2870, 26500.14
146.7691, 26702.80
147.2512, 26939.55
147.7334, 27222.38
148.2155, 27567.05
148.6976, 27923.36
149.1797, 28242.95
149.6618, 28586.29
150.1439, 29028.10
150.6261, 29686.72
151.1082, 30326.50
151.5903, 30878.39
152.0724, 31310.14
152.5545, 31718.26
153.0366, 32111.79
153.5188, 32481.32
154.0009, 32804.42
154.4830, 33114.04
154.9651, 33358.74
155.4472, 33523.67
155.9293, 33589.43
156.4115, 33598.28
156.8936, 33552.52
157.3757, 33456.16
157.8578, 33331.35
158.3399, 33156.12
158.8221, 32969.99
159.3042, 32802.09
159.7863, 32664.42
160.2684, 32540.70
160.7505, 32428.05
161.2326, 32328.75
161.7148, 32232.42
162.1969, 32132.88
162.6790, 32037.07
163.1611, 31946.56
163.6432, 31867.02
164.1253, 31793.02
164.6075, 31710.27
165.0896, 31617.77
165.5717, 31560.32
166.0538, 31619.80
166.5359, 31720.63
167.0180, 31755.77
167.5002, 31598.46
167.9823, 31414.95
168.4644, 31349.17
168.9465, 31428.09
169.4286, 31511.59
169.9107, 31506.30
170.3929, 31428.57
170.8750, 31324.14
171.3571, 31198.12
171.8392, 31061.05
172.3213, 30925.76
172.8034, 30794.52
173.2856, 30653.41
173.7677, 30470.55
174.2498, 30261.34
174.7319, 30074.59
175.2140, 29982.12
175.6961, 29921.30
176.1783, 29785.75
176.6604, 29528.34
177.1425, 29235.78
177.6246, 29020.56
178.1067, 28755.83
178.5888, 28486.54
179.0710, 28139.48
179.5531, 27749.76
180.0352, 27392.74
180.5173, 27100.48
180.9994, 26835.86
181.4815, 26520.51
181.9637, 26164.82
182.4458, 25842.84
182.9279, 25656.28
183.4100, 25560.52
183.8921, 25402.05
184.3742, 25094.52
184.8564, 24715.01
185.3385, 24446.39
185.8206, 24295.85
186.3027, 24183.70
186.7848, 24062.93
187.2669, 23925.75
187.7491, 23724.18
188.2312, 23388.92
188.7133, 22973.20
189.1954, 22705.29
189.6775, 22610.84
190.1596, 22545.01
190.6418, 22312.66
191.1239, 21917.16
191.6060, 21542.11
192.0881, 21271.48
192.5702, 21093.70
193.0524, 20908.41
193.5345, 20714.43
194.0166, 20514.70
194.4987, 20308.30
194.9808, 20095.12
195.4629, 19879.79
195.9451, 19659.38
196.4272, 19436.11
196.9093, 19222.51
197.3914, 19023.16
197.8735, 18826.55
198.3556, 18609.16
198.8378, 18368.08
199.3199, 18122.07
199.8020, 17872.51
200.2841, 17616.10
200.7662, 17397.88
201.2483, 17241.61
201.7305, 17105.59
202.2126, 16865.80
202.6947, 16490.03
203.1768, 16131.49
203.6589, 15899.34
204.1410, 15813.57
204.6232, 15705.39
205.1053, 15563.34
205.5874, 15387.95
206.0695, 15170.33
206.5516, 14892.97
207.0337, 14618.76
207.5159, 14392.90
207.9980, 14219.88
208.4801, 14065.52
208.9622, 13940.30
209.4443, 13830.04
209.9264, 13654.54
210.4086, 13382.91
210.8907, 13108.63
211.3728, 12913.19
211.8549, 12829.88
212.3370, 12714.99
212.8191, 12544.55
213.3013, 12322.97
213.7834, 12097.77
214.2655, 11862.62
214.7476, 11634.17
215.2297, 11424.01
215.7118, 11231.70
216.1940, 11062.66
216.6761, 10920.52
217.1582, 10805.14
217.6403, 10702.32
218.1224, 10630.12
218.6045, 10543.35
219.0867, 10388.59
219.5688, 10127.43
220.0509, 9887.602
220.5330, 9701.125
221.0151, 9571.133
221.4972, 9418.945
221.9794, 9235.086
222.4615, 9039.477
222.9436, 8856.383
223.4257, 8692.125
223.9078, 8530.070
224.3899, 8364.500
224.8721, 8197.016
225.3542, 8035.672
225.8363, 7876.508
226.3184, 7726.969
226.8005, 7605.914
227.2827, 7547.945
227.7648, 7445.109
228.2469, 7248.406
228.7290, 6933.867
229.2111, 6705.367
229.6932, 6589.828
230.1754, 6538.664
230.6575, 6502.562
231.1396, 6520.734
231.6217, 6482.578
232.1038, 6346.625
232.5859, 6090.883
233.0681, 5840.523
233.5502, 5574.203
234.0323, 5328.961
234.5144, 5163.984
234.9965, 5114.969
235.4786, 5079.547
235.9608, 5038.438
236.4429, 4999.000
236.9250, 4926.703
237.4071, 4795.578
237.8892, 4639.438
238.3713, 4522.000
238.8535, 4487.125
239.3356, 4422.328
239.8177, 4270.328
240.2998, 3979.016
240.7819, 3801.531
241.2640, 3804.312
241.7462, 3884.672
242.2283, 3862.109
242.7104, 3681.250
243.1925, 3487.906
243.6746, 3330.062
244.1567, 3220.953
244.6389, 3095.969
245.1210, 2932.031
245.6031, 2763.578
246.0852, 2658.734
246.5673, 2655.891
247.0494, 2667.375
247.5316, 2665.516
248.0137, 2652.562
248.4958, 2600.984
248.9779, 2477.703
249.4600, 2325.969
249.9421, 2235.234
250.4243, 2248.250
250.9064, 2262.922
251.3885, 2236.672
251.8706, 2150.266
252.3527, 2086.203
252.8348, 2068.000
253.3170, 2050.453
253.7991, 1938.484
254.2812, 1675.594
254.7633, 1443.875
255.2454, 1313.281
255.7275, 1304.344
256.2097, 1313.625
256.6918, 1352.688
257.1739, 1399.078
257.6560, 1410.953
258.1381, 1370.312
258.6202, 1323.953
259.1024, 1295.000
259.5845, 1291.688
260.0666, 1284.156
260.5487, 1273.469
261.0308, 1253.578
261.5129, 1224.625
261.9951, 1188.703
262.4772, 1123.500
262.9593, 1007.203
263.4414, 819.7031
263.9235, 701.3750
264.4056, 671.4531
264.8878, 688.1406
265.3699, 681.3438
265.8520, 643.0312
266.3341, 611.8125
266.8162, 615.5781
267.2983, 667.0156
267.7805, 657.9844
268.2626, 553.1094
268.7447, 420.2344
269.2268, 400.2344
269.7089, 539.4375
270.1910, 637.6250
270.6732, 597.3125
271.1553, 398.2969
271.6374, 264.0156
272.1195, 193.7969
272.6016, 165.2344
273.0837, 145.8750
273.5659, 145.1250
274.0480, 159.8906
274.5301, 193.6250
275.0122, 242.7812
275.4943, 255.5000
275.9764, 227.4062
276.4586, 180.8906
276.9407, 156.0312
277.4228, 156.7656
277.9049, 131.1250
278.3870, 30.81250
278.8691, 138.0312
279.3513, 215.3281
279.8334, 181.7969
280.3155, 102.0312
280.7976, 44.07812
281.2798, 3.937500
281.7619, 12.34375
282.2440, 111.8125
282.7261, 287.7344
283.2082, 412.9531
283.6903, 485.4844
284.1725, 514.7812
284.6546, 504.5625
285.1367, 455.4062
285.6188, 386.2500
286.1009, 295.0312
286.5830, 188.7656
287.0652, 81.53125
287.5473, 30.64062
288.0294, 98.53125
288.5115, 32.98438
288.9936, 148.4219
289.4757, 299.7031
289.9579, 359.5000
290.4400, 351.2656
290.9221, 353.7188
291.4042, 374.0625
291.8863, 383.7969
292.3684, 318.1094
292.8506, 203.5938
293.3327, 159.0000
293.8148, 262.0781
294.2969, 431.0938
294.7790, 502.6250
295.2611, 477.6875
295.7433, 435.4219
296.2254, 450.0156
296.7075, 499.5312
297.1896, 527.0000
297.6717, 505.1250
298.1538, 462.1406
298.6360, 440.9375
299.1181, 439.1875
299.6002, 441.7812
300.0823, 443.9219
300.5644, 440.9531
301.0465, 423.0781
301.5287, 385.0625
302.0108, 333.7812
302.4929, 254.0000
302.9750, 155.9531
303.4571, 107.1562
303.9392, 198.0781
304.4214, 351.2500
304.9035, 464.3438
305.3856, 515.4844
305.8677, 515.0469
306.3498, 432.5000
306.8319, 294.4375
307.3141, 190.9688
307.7962, 210.4062
308.2783, 277.1875
308.7604, 320.0938
309.2425, 329.1250
309.7246, 303.5312
310.2068, 198.5000
310.6889, 51.81250
311.1710, 42.26562
311.6531, 8.281250
312.1352, 101.1250
312.6173, 162.8594
313.0995, 177.9844
313.5816, 173.6875
314.0637, 162.6250
314.5458, 140.4375
315.0279, 97.81250
315.5100, 13.98438
315.9922, 112.3594
316.4743, 142.2344
316.9564, 78.64062
317.4385, 25.65625
317.9206, 5.375000
318.4027, 19.23438
318.8849, 69.09375
319.3670, 224.3281
319.8491, 354.7188
320.3312, 396.8906
320.8133, 328.7188
321.2954, 282.6875
321.7776, 306.0156
322.2597, 356.8906
322.7418, 391.4219
323.2239, 394.6094
323.7060, 389.1719
324.1881, 368.5938
324.6703, 328.5938
325.1524, 322.2500
325.6345, 403.5312
326.1166, 491.2188
326.5987, 521.1719
327.0808, 450.0000
327.5630, 375.3906
328.0451, 273.0312
328.5272, 148.5312
329.0093, 159.5156
329.4914, 451.2500
329.9735, 746.2188
330.4557, 849.6875
330.9378, 589.6562
331.4199, 441.7188
331.9020, 486.3281
332.3841, 678.2344
332.8662, 794.6875
333.3484, 802.3906
333.8305, 784.6562
334.3126, 779.7969
334.7947, 777.2031
335.2768, 821.4375
335.7589, 935.1562
336.2411, 1085.828
336.7232, 1208.000
337.2053, 1315.516
337.6874, 1351.359
338.1695, 1246.859
338.6516, 971.1094
339.1338, 829.1094
339.6159, 847.3594
340.0980, 961.6406
340.5801, 1090.719
341.0622, 1246.672
341.5443, 1349.344
342.0265, 1354.312
342.5086, 1270.312
342.9907, 1181.969
343.4728, 1083.453
343.9549, 1009.594
344.4370, 1004.688
344.9192, 1064.594
345.4013, 1163.578
345.8834, 1346.875
346.3655, 1546.156
346.8476, 1515.969
347.3297, 1247.281
347.8119, 976.5469
348.2940, 939.9375
348.7761, 1083.266
349.2582, 1250.172
349.7403, 1440.406
350.2225, 1597.891
350.7046, 1603.109
351.1867, 1473.453
351.6688, 1354.234
352.1509, 1385.172
352.6331, 1484.172
353.1152, 1524.094
353.5973, 1454.156
354.0794, 1364.859
354.5615, 1339.469
355.0436, 1362.312
355.5258, 1385.469
356.0079, 1364.562
356.4900, 1341.328
356.9721, 1360.266
357.4542, 1443.875
357.9363, 1516.594
358.4185, 1524.438
358.9006, 1492.391
359.3827, 1465.812
359.8648, 1454.438
360.3469, 1462.375
360.8290, 1498.938
361.3112, 1568.922
361.7933, 1625.016
362.2754, 1659.406
362.7575, 1668.609
363.2396, 1649.922
363.7217, 1567.047
364.2039, 1496.969
364.6860, 1464.344
365.1681, 1469.641
365.6502, 1477.109
366.1323, 1509.469
366.6144, 1525.062
367.0966, 1495.047
367.5787, 1324.828
368.0608, 1228.875
368.5429, 1256.281
369.0250, 1380.781
369.5071, 1465.016
369.9893, 1487.547
370.4714, 1489.016
370.9535, 1492.359
371.4356, 1508.922
371.9177, 1502.688
372.3998, 1457.594
372.8820, 1399.234
373.3641, 1391.594
373.8462, 1456.656
374.3283, 1502.844
374.8104, 1480.234
375.2925, 1381.516
375.7747, 1324.109
376.2568, 1316.547
376.7389, 1338.922
377.2210, 1371.312
377.7031, 1412.469
378.1852, 1448.094
378.6674, 1482.516
379.1495, 1506.844
379.6316, 1473.312
380.1137, 1376.312
380.5958, 1267.891
381.0779, 1182.594
381.5601, 1123.250
382.0422, 1102.844
382.5243, 1129.078
383.0064, 1189.328
383.4885, 1307.359
383.9706, 1468.203
384.4528, 1550.391
384.9349, 1368.078
385.4170, 1077.172
385.8991, 950.7344
386.3812, 1063.094
386.8633, 1235.219
387.3455, 1318.859
387.8276, 1337.281
388.3097, 1348.797
388.7918, 1371.297
389.2739, 1396.719
389.7560, 1434.203
390.2382, 1490.734
390.7203, 1511.062
391.2024, 1415.750
391.6845, 1281.797
392.1666, 1199.297
392.6487, 1249.203
393.1309, 1309.766
393.6130, 1336.125
394.0951, 1330.328
394.5772, 1316.562
395.0593, 1289.891
395.5414, 1260.891
396.0236, 1235.594
396.5057, 1163.406
396.9878, 1151.141
397.4699, 1298.859
397.9520, 1529.688
398.4341, 1593.359
398.9163, 1311.969
399.3984, 1049.453
399.8805, 941.0312
400.3626, 1043.531
400.8447, 1122.500
401.3268, 1168.969
401.8090, 1197.469
402.2911, 1235.000
402.7732, 1291.938
403.2553, 1332.734
403.7374, 1343.078
404.2195, 1325.750
404.7017, 1329.766
405.1838, 1360.750
405.6659, 1378.609
406.1480, 1354.844
406.6301, 1294.344
407.1122, 1208.750
407.5944, 1082.312
408.0765, 949.8750
408.5586, 884.9375
409.0407, 884.3438
409.5228, 949.5469
410.0049, 1154.984
410.4871, 1434.453
410.9692, 1582.891
411.4513, 1559.219
411.9334, 1459.859
412.4155, 1377.219
412.8976, 1310.562
413.3798, 1251.438
413.8619, 1198.500
414.3440, 1147.703
414.8261, 1080.844
415.3082, 1000.703
415.7903, 965.4531
416.2725, 1061.844
416.7546, 1201.859
417.2367, 1291.938
417.7188, 1288.328
418.2009, 1241.531
418.6830, 1143.297
419.1652, 1013.281
419.6473, 920.5625
420.1294, 888.8750
420.6115, 896.8750
421.0937, 944.2031
421.5758, 1067.406
422.0579, 1142.766
422.5400, 1124.375
423.0221, 1056.484
423.5042, 1011.750
423.9864, 983.3281
424.4685, 989.6406
424.9506, 1058.109
425.4327, 1194.984
425.9148, 1248.281
426.3969, 1168.094
426.8791, 1067.047
427.3612, 1052.891
427.8433, 1171.297
428.3254, 1224.922
428.8075, 1169.219
429.2896, 1036.312
429.7718, 916.5156
430.2539, 799.4219
430.7360, 743.5312
431.2181, 828.0156
431.7002, 1039.000
432.1823, 1146.500
432.6645, 1123.719
433.1466, 1043.172
433.6287, 991.7812
434.1108, 967.6094
434.5929, 958.6719
435.0750, 982.0781
435.5572, 1007.109
436.0393, 960.9688
436.5214, 847.3281
437.0035, 748.7812
437.4856, 747.0000
437.9677, 793.4531
438.4499, 820.8438
438.9320, 799.4844
439.4141, 778.2031
439.8962, 791.5312
440.3783, 831.2031
440.8604, 878.4062
441.3426, 957.7812
441.8247, 1017.938
442.3068, 1025.781
442.7889, 969.3750
443.2710, 886.5156
443.7531, 745.1719
444.2353, 606.5625
444.7174, 531.9375
445.1995, 599.7500
445.6816, 651.0312
446.1637, 622.0312
446.6458, 528.0469
447.1280, 554.0312
447.6101, 810.9062
448.0922, 1066.156
448.5743, 1187.953
449.0564, 1138.609
449.5385, 1049.828
450.0207, 905.2344
450.5028, 742.9219
450.9849, 625.2031
451.4670, 549.0312
451.9491, 533.3750
452.4312, 623.2969
452.9134, 793.2344
453.3955, 834.7812
453.8776, 733.2188
454.3597, 610.9688
454.8418, 618.8438
455.3239, 720.3281
455.8061, 740.5625
456.2882, 602.7188
456.7703, 419.7500
457.2524, 347.9844
457.7345, 373.7656
458.2166, 439.9844
458.6988, 542.7188
459.1809, 649.9844
459.6630, 733.4062
460.1451, 794.8906
460.6272, 806.4375
461.1093, 706.4219
461.5915, 558.4688
462.0736, 442.5312
462.5557, 379.0312
463.0378, 358.6719
463.5199, 407.8281
464.0020, 512.1250
464.4842, 574.6719
464.9663, 516.5469
465.4484, 452.4531
465.9305, 452.0312
466.4126, 633.2656
466.8947, 673.6719
467.3769, 452.9062
467.8590, 147.2031
468.3411, 59.34375
468.8232, 318.7188
469.3053, 531.5156
469.7874, 577.7344
470.2696, 468.7812
470.7517, 423.7188
471.2338, 464.6250
471.7159, 505.0938
472.1980, 431.3438
472.6801, 244.4688
473.1623, 173.3281
473.6444, 279.6875
474.1265, 469.2344
474.6086, 612.5781
475.0907, 708.3281
475.5728, 728.1406
476.0550, 579.2500
476.5371, 373.3906
477.0192, 308.6406
477.5013, 392.6875
477.9834, 501.5938
478.4655, 549.9531
478.9477, 562.4219
479.4298, 569.0469
479.9119, 590.0156
480.3940, 593.3906
480.8761, 542.2812
481.3582, 465.5781
481.8404, 420.5938
482.3225, 457.3594
482.8046, 502.4688
483.2867, 525.2344
483.7688, 518.0625
484.2509, 512.2500
484.7331, 501.1250
485.2152, 497.7344
485.6973, 516.9844
486.1794, 566.3594
486.6615, 625.7031
487.1436, 709.4688
487.6258, 802.0312
488.1079, 819.3594
488.5900, 734.9844
489.0721, 650.3438
489.5542, 640.3906
490.0363, 705.7344
490.5185, 684.3906
491.0006, 553.7656
491.4827, 401.2031
491.9648, 316.5469
492.4470, 291.9219
492.9291, 326.9375
493.4112, 467.6250
493.8933, 638.2656
494.3754, 731.6406
494.8575, 749.5000
495.3397, 693.4688
495.8218, 461.5000
496.3039, 206.2500
496.7860, 106.2344
497.2681, 215.4844
497.7502, 366.9531
498.2324, 542.1094
498.7145, 687.4062
499.1966, 734.7969
499.6787, 492.2969
500.1608, 319.7656
500.6429, 392.0625
501.1251, 688.3438
501.6072, 848.1719
502.0893, 752.1094
502.5714, 602.1250
503.0535, 487.9219
503.5356, 409.3594
504.0178, 366.1250
504.4999, 364.7031
504.9820, 392.7031
505.4641, 436.7188
505.9462, 498.1406
506.4283, 562.0469
506.9105, 633.3750
507.3926, 700.0156
507.8747, 714.8906
508.3568, 677.2500
508.8389, 599.2969
509.3210, 426.8281
509.8032, 222.3125
510.2853, 192.2344
510.7674, 401.5938
511.2495, 620.3750
511.7316, 555.0625
512.2137, 320.5312
512.6959, 160.1719
513.1780, 259.6719
513.6601, 397.1719
514.1422, 417.3281
514.6243, 335.8438
515.1064, 274.6875
515.5886, 330.2812
516.0707, 388.9219
516.5528, 375.3281
517.0349, 200.0312
517.5170, 87.93750
517.9991, 100.1719
518.4813, 171.0000
518.9634, 222.2812
519.4455, 260.7344
519.9276, 264.2812
520.4097, 212.5938
520.8918, 118.7188
521.3740, 72.95312
521.8561, 82.31250
522.3382, 117.4531
522.8203, 172.9375
523.3024, 244.7812
523.7845, 283.6719
524.2667, 286.6562
524.7488, 262.9062
525.2309, 212.0781
525.7130, 141.2656
526.1951, 82.54688
526.6772, 59.42188
527.1594, 48.28125
527.6415, 18.79688
528.1236, 25.65625
528.6057, 65.21875
529.0878, 110.8594
529.5699, 131.9375
530.0521, 86.17188
530.5342, 59.48438
531.0163, 145.4062
531.4984, 69.56250
531.9805, 66.10938
532.4626, 154.1719
532.9448, 148.9375
533.4269, 133.5781
533.9090, 118.3438
534.3911, 100.7344
534.8732, 77.53125
535.3553, 64.53125
535.8375, 0.2656250
536.3196, 179.9531
536.8017, 493.6094
537.2838, 545.3281
537.7659, 278.9375
538.2480, 60.68750
538.7302, 216.4844
539.2123, 208.3438
539.6944, 161.1719
540.1765, 87.35938
540.6586, 11.93750
541.1407, 35.71875
541.6229, 58.03125
542.1050, 65.35938
542.5871, 46.51562
543.0692, 26.64062
543.5513, 29.37500
544.0334, 55.31250
544.5156, 87.64062
544.9977, 127.3125
545.4798, 165.0781
545.9619, 193.5156
546.4440, 224.0312
546.9261, 226.0938
547.4083, 190.0625
547.8904, 124.4844
548.3725, 37.28125
548.8546, 125.1875
549.3367, 220.3906
549.8188, 195.4062
550.3010, 61.68750
550.7831, 51.82812
551.2652, 150.7969
551.7473, 213.1719
552.2294, 181.1406
552.7115, 72.56250
553.1937, 101.2500
553.6758, 315.9219
554.1579, 530.4062
554.6400, 461.0156
555.1221, 199.7656
555.6042, 4.875000
556.0864, 0.6093750
556.5685, 66.26562
557.0506, 95.42188
557.5327, 100.5312
558.0148, 133.4062
558.4969, 285.9531
558.9791, 426.9062
559.4612, 454.4219
559.9433, 329.1094
560.4254, 243.4375
560.9075, 241.7188
561.3896, 289.6562
561.8718, 359.7188
562.3539, 491.7500
562.8360, 576.2656
563.3181, 586.3594
563.8002, 551.9062
564.2823, 553.4219
564.7645, 603.9062
565.2466, 627.2188
565.7287, 589.5000
566.2108, 499.2500
566.6929, 386.1406
567.1750, 248.7344
567.6572, 118.4375
568.1393, 5.093750
568.6214, 76.15625
569.1035, 90.07812
569.5856, 23.26562
570.0677, 77.65625
570.5499, 213.4219
571.0320, 352.7656
571.5141, 446.4688
571.9962, 499.1406
572.4783, 478.8750
572.9604, 288.5469
573.4426, 17.35938
573.9247, 166.1562
574.4068, 60.04688
574.8889, 292.6406
575.3710, 381.6562
575.8531, 289.9531
576.3353, 251.8750
576.8174, 298.3125
577.2995, 351.5781
577.7816, 316.9844
578.2637, 179.0469
578.7458, 123.5156
579.2280, 197.4219
579.7101, 328.8906
580.1922, 399.9062
580.6743, 415.8750
581.1564, 406.7188
581.6385, 368.8125
582.1207, 322.6875
582.6028, 272.6719
583.0849, 226.5312
583.5670, 244.2969
584.0491, 469.1094
584.5313, 703.8438
585.0134, 777.7969
585.4955, 610.3125
585.9776, 461.2344
586.4597, 411.9688
586.9418, 406.1562
587.4240, 381.5156
587.9061, 301.6250
588.3882, 268.5625
588.8703, 314.5781
589.3524, 404.0781
589.8345, 426.7188
590.3167, 364.3438
590.7988, 299.0938
591.2809, 279.5156
591.7630, 287.2188
592.2451, 186.3750
592.7272, 29.23438
593.2094, 193.4062
593.6915, 112.2031
594.1736, 108.5625
594.6557, 275.3594
595.1378, 351.0781
595.6199, 376.6875
596.1021, 348.8281
596.5842, 288.2344
597.0663, 241.8281
597.5485, 233.2812
598.0306, 235.1250
598.5127, 216.2344
598.9948, 190.7500
599.4769, 233.1719
599.9590, 435.3906
600.4412, 599.7344
600.9233, 644.7188
601.4054, 560.2031
601.8875, 544.5781
602.3696, 638.2969
602.8517, 700.6875
603.3339, 554.1406
603.8160, 222.5312
604.2981, 47.64062
604.7802, 87.32812
605.2623, 223.0625
605.7444, 329.8125
606.2266, 412.1094
606.7087, 470.0781
607.1908, 522.2188
607.6729, 544.4531
608.1550, 492.9844
608.6371, 388.3750
609.1193, 309.9531
609.6014, 344.6562
610.0835, 366.2188
610.5656, 275.9375
611.0477, 35.81250
611.5298, 47.39062
612.0120, 163.5625
612.4941, 405.0156
612.9762, 490.6719
613.4583, 362.3750
613.9404, 292.7344
614.4225, 314.8125
614.9047, 359.0938
615.3868, 307.6562
615.8689, 170.2812
616.3510, 74.39062
616.8331, 48.29688
617.3152, 93.78125
617.7974, 282.8594
618.2795, 565.2969
618.7616, 759.6406
619.2437, 688.1562
619.7258, 547.6562
620.2079, 459.8438
620.6901, 433.5156
621.1722, 488.5938
621.6543, 791.5312
622.1364, 1066.875
622.6185, 1112.188
623.1006, 760.3750
623.5828, 531.7500
624.0649, 458.6562
624.5470, 479.0781
625.0291, 529.6250
625.5112, 615.3750
625.9933, 710.8594
626.4755, 827.0781
626.9576, 923.6562
627.4397, 893.2031
627.9218, 748.5938
628.4039, 598.2656
628.8860, 457.4375
629.3682, 362.0781
629.8503, 380.4844
630.3324, 501.5312
630.8145, 643.1406
631.2966, 801.5781
631.7787, 923.8125
632.2609, 975.5625
632.7430, 921.5312
633.2251, 882.1562
633.7072, 892.1250
634.1893, 918.8438
634.6714, 937.7656
635.1536, 953.0000
635.6357, 951.2969
636.1178, 931.5781
636.5999, 893.8594
637.0820, 810.6406
637.5641, 677.0938
638.0463, 631.2344
638.5284, 763.0781
639.0105, 970.2188
639.4926, 1038.922
639.9747, 990.5312
640.4568, 944.1250
640.9390, 994.2031
641.4211, 1066.266
641.9032, 1097.312
642.3853, 1082.781
642.8674, 1035.234
643.3495, 900.9688
643.8317, 774.6875
644.3138, 723.5156
644.7959, 792.2812
645.2780, 868.0469
645.7601, 954.2188
646.2422, 1044.078
646.7244, 1142.344
647.2065, 1260.078
647.6886, 1315.016
648.1707, 1274.375
648.6528, 1187.953
649.1349, 1159.047
649.6171, 1179.469
650.0992, 1191.781
650.5813, 1157.188
651.0634, 1101.062
651.5455, 1055.594
652.0276, 1031.594
652.5098, 1047.422
652.9919, 1163.391
653.4740, 1271.641
653.9561, 1296.703
654.4382, 1215.703
654.9203, 1144.547
655.4025, 1080.594
655.8846, 1044.234
656.3667, 1058.594
656.8488, 1156.219
657.3309, 1202.547
657.8130, 1181.766
658.2952, 1130.375
658.7773, 1082.266
659.2594, 1040.828
659.7415, 1056.500
660.2236, 1170.844
660.7057, 1301.094
661.1879, 1302.500
661.6700, 1218.703
662.1521, 1170.203
662.6342, 1275.266
663.1163, 1383.031
663.5984, 1397.078
664.0806, 1324.000
664.5627, 1237.641
665.0448, 1149.516
665.5269, 1057.531
666.0090, 950.3125
666.4911, 817.7031
666.9733, 757.6875
667.4554, 805.6875
667.9375, 866.6406
668.4196, 827.0000
668.9017, 691.5156
669.3839, 608.7969
669.8660, 595.9062
670.3481, 624.9062
670.8302, 706.4688
671.3123, 802.9219
671.7944, 828.2812
672.2766, 723.2969
672.7587, 592.0781
673.2408, 472.6719
673.7229, 379.1250
674.2050, 336.9844
674.6871, 377.9844
675.1693, 446.0000
675.6514, 546.4844
676.1335, 668.0469
676.6156, 750.8125
677.0977, 794.6094
677.5798, 799.6250
678.0620, 744.4531
678.5441, 640.2188
679.0262, 595.5469
679.5083, 614.3750
679.9904, 630.0625
680.4725, 573.7188
680.9547, 484.6719
681.4368, 424.2031
681.9189, 395.9375
682.4010, 410.6562
682.8831, 546.6875
683.3652, 692.5000
683.8474, 726.8438
684.3295, 516.7969
684.8116, 362.5469
685.2937, 342.5469
685.7758, 385.7188
686.2579, 401.0000
686.7401, 373.1406
687.2222, 364.4375
687.7043, 404.0938
688.1864, 451.2500
688.6685, 363.1875
689.1506, 152.8750
689.6328, 34.34375
690.1149, 174.2188
690.5970, 415.1406
691.0791, 531.4688
691.5612, 538.0156
692.0433, 507.6562
692.5255, 415.2656
693.0076, 351.4375
693.4897, 413.6719
693.9718, 627.6719
694.4539, 719.7500
694.9360, 559.3906
695.4182, 355.1250
695.9003, 202.6094
696.3824, 96.17188
696.8645, 90.67188
697.3466, 217.9531
697.8287, 362.4062
698.3109, 375.7031
698.7930, 287.7031
699.2751, 266.5625
699.7572, 354.8906
700.2393, 464.3750
700.7214, 512.8125
701.2036, 516.8438
701.6857, 503.4062
702.1678, 462.2188
702.6499, 428.7188
703.1320, 429.9688
703.6141, 448.0000
704.0963, 436.3906
704.5784, 363.0312
705.0605, 305.6406
705.5426, 278.5000
706.0247, 280.4375
706.5068, 326.9219
706.9890, 430.7656
707.4711, 477.0625
707.9532, 375.0312
708.4353, 178.6406
708.9174, 5.750000
709.3995, 171.6875
709.8817, 247.7812
710.3638, 91.34375
710.8459, 116.4062
711.3280, 203.3906
711.8101, 138.6875
712.2922, 82.70312
712.7744, 53.48438
713.2565, 69.62500
713.7386, 149.0469
714.2207, 337.6094
714.7028, 477.3125
715.1849, 580.0938
715.6671, 617.6250
716.1492, 509.0156
716.6313, 274.8438
717.1134, 179.5781
717.5955, 304.4844
718.0776, 463.7656
718.5598, 394.0938
719.0419, 196.4844
719.5240, 66.98438
720.0061, 124.3438
720.4882, 205.2656
720.9703, 240.7031
721.4525, 245.2188
721.9346, 251.7344
722.4167, 273.4375
722.8988, 289.2656
723.3809, 314.3438
723.8630, 329.1406
724.3452, 219.5156
724.8273, 43.17188
725.3094, 211.7656
725.7915, 109.4844
726.2736, 149.1562
726.7557, 277.7500
727.2379, 284.7656
727.7200, 248.2188
728.2021, 189.6094
728.6842, 143.4375
729.1663, 155.2031
729.6484, 231.0000
730.1306, 268.7344
730.6127, 167.8125
731.0948, 81.40625
731.5769, 108.2188
732.0590, 299.2656
732.5411, 386.9375
733.0233, 349.8906
733.5054, 258.0469
733.9875, 150.0000
734.4696, 34.75000
734.9517, 14.21875
735.4338, 17.40625
735.9160, 75.12500
736.3981, 133.1406
736.8802, 172.8750
737.3623, 162.5469
737.8444, 68.25000
738.3266, 26.56250
738.8087, 124.3750
739.2908, 191.8125
739.7729, 177.0938
740.2551, 47.93750
740.7372, 117.2344
741.2193, 360.5156
741.7014, 592.7344
742.1835, 579.5469
742.6656, 317.5000
743.1478, 114.1094
743.6299, 89.60938
744.1120, 147.2969
744.5941, 144.0312
745.0762, 97.06250
745.5583, 61.50000
746.0405, 67.10938
746.5226, 89.50000
747.0047, 105.5938
747.4868, 122.6250
747.9689, 186.8906
748.4510, 375.4062
748.9332, 516.9531
749.4153, 555.1250
749.8974, 495.3281
750.3795, 383.7812
750.8616, 207.7031
751.3438, 80.42188
751.8259, 127.0469
752.3080, 265.1406
752.7901, 273.4531
753.2722, 153.6719
753.7543, 63.53125
754.2365, 145.5000
754.7186, 274.6562
755.2007, 350.4375
755.6828, 354.6406
756.1649, 356.8750
756.6470, 387.7344
757.1292, 393.4375
757.6113, 325.7500
758.0934, 150.2344
758.5755, 65.64062
759.0576, 89.95312
759.5397, 143.0625
760.0219, 135.8750
760.5040, 88.75000
760.9861, 70.37500
761.4682, 86.03125
761.9503, 109.0156
762.4324, 108.2188
762.9146, 110.2188
763.3967, 151.2344
763.8788, 306.5312
764.3609, 391.3438
764.8430, 303.4531
765.3251, 170.3281
765.8073, 144.2812
766.2894, 264.6406
766.7715, 361.5312
767.2536, 392.7656
767.7357, 379.4844
768.2178, 357.8594
768.7000, 332.0938
769.1821, 330.4844
769.6642, 395.3281
770.1463, 438.2031
770.6284, 326.3906
771.1105, 144.5781
771.5927, 54.26562
772.0748, 199.3750
772.5569, 334.4375
773.0390, 409.7344
773.5211, 440.0469
774.0032, 434.9062
774.4854, 359.9219
774.9675, 334.2500
775.4496, 418.0938
775.9317, 552.2031
776.4138, 552.5312
776.8959, 443.3281
777.3781, 356.3125
777.8602, 392.6406
778.3423, 453.0625
778.8244, 466.9531
779.3065, 436.0000
779.7886, 371.9531
780.2708, 198.7344
780.7529, 81.81250
781.2350, 83.12500
781.7171, 189.3594
782.1992, 299.2188
782.6813, 438.9219
783.1635, 489.8906
783.6456, 313.7812
784.1277, 16.35938
784.6098, 9.031250
785.0919, 211.6406
785.5740, 408.4219
786.0562, 361.0312
786.5383, 251.9219
787.0204, 247.9844
787.5025, 358.6875
787.9846, 419.5781
788.4667, 334.0469
788.9489, 245.4844
789.4310, 217.8125
789.9131, 256.8906
790.3952, 273.5000
790.8773, 259.7656
791.3594, 236.9688
791.8416, 198.7344
792.3237, 166.2500
792.8058, 217.7656
793.2879, 357.9844
793.7700, 471.1094
794.2521, 482.5156
794.7343, 429.7031
795.2164, 320.4531
795.6985, 126.9531
796.1806, 11.62500
796.6627, 10.67188
797.1448, 41.06250
797.6270, 190.6094
798.1091, 471.5000
798.5912, 624.9531
799.0733, 639.8750
799.5554, 568.5781
800.0375, 378.9375
800.5197, 161.5625
801.0018, 126.7500
801.4839, 327.4219
801.9660, 499.8281
802.4481, 441.5938
802.9302, 311.4219
803.4124, 245.6562
803.8945, 308.6406
804.3766, 330.3906
804.8587, 278.0938
805.3408, 227.7500
805.8229, 267.2656
806.3051, 395.9531
806.7872, 465.0156
807.2693, 458.9062
807.7514, 411.6719
808.2335, 334.4062
808.7156, 247.7969
809.1978, 176.1094
809.6799, 111.7031
810.1620, 105.2344
810.6441, 244.1250
811.1262, 413.8594
811.6083, 502.4531
812.0905, 495.8281
812.5726, 416.8594
813.0547, 209.1406
813.5368, 39.26562
814.0189, 183.5312
814.5010, 571.5156
814.9832, 763.8750
815.4653, 659.0312
815.9474, 500.9062
816.4295, 560.2656
816.9116, 680.5781
817.3937, 648.4531
817.8759, 265.8750
818.3580, 17.93750
818.8401, 93.53125
819.3222, 289.3594
819.8043, 433.5469
820.2864, 525.4688
820.7686, 564.0625
821.2507, 543.6094
821.7328, 483.3125
822.2149, 399.6719
822.6970, 296.2188
823.1791, 167.7656
823.6613, 8.031250
824.1434, 133.8125
824.6255, 119.1719
825.1076, 30.07812
825.5897, 58.95312
826.0718, 176.8125
826.5540, 230.2031
827.0361, 193.8750
827.5182, 124.1719
828.0003, 76.09375
828.4824, 49.96875
828.9645, 96.23438
829.4467, 246.3750
829.9288, 365.2344
830.4109, 235.0625
830.8930, 9.687500
831.3751, 163.9219
831.8572, 163.2656
832.3394, 92.28125
832.8215, 105.1562
833.3036, 312.9219
833.7857, 399.1094
834.2678, 309.3906
834.7499, 254.2031
835.2321, 251.5781
835.7142, 272.8750
836.1963, 304.4844
836.6784, 336.9688
837.1605, 300.9375
837.6426, 175.7500
838.1248, 68.40625
838.6069, 107.2031
839.0890, 187.7812
839.5711, 185.0000
840.0532, 35.51562
840.5353, 135.3281
841.0175, 42.29688
841.4996, 121.2500
841.9817, 228.4375
842.4638, 278.2969
842.9459, 334.8594
843.4280, 395.8594
843.9102, 470.2500
844.3923, 604.3750
844.8744, 746.9375
845.3565, 815.8594
845.8386, 796.0469
846.3207, 703.9844
846.8029, 430.7656
847.2850, 161.0938
847.7671, 68.62500
848.2492, 234.1406
848.7313, 372.1250
849.2134, 490.5156
849.6956, 558.6250
850.1777, 504.9844
850.6598, 370.7656
851.1419, 322.3125
851.6240, 387.1094
852.1061, 465.5469
852.5883, 480.6406
853.0704, 476.1719
853.5525, 499.9375
854.0346, 583.6406
854.5167, 593.7344
854.9988, 441.6250
855.4810, 329.5156
855.9631, 461.7344
856.4452, 845.7188
856.9273, 940.9531
857.4094, 716.2344
857.8915, 453.8906
858.3737, 400.5469
858.8558, 457.4844
859.3379, 505.2031
859.8200, 526.8281
860.3021, 560.2500
860.7842, 646.7656
861.2664, 722.3906
861.7485, 747.1250
862.2306, 715.8750
862.7127, 689.2188
863.1948, 667.1719
863.6769, 649.1406
864.1591, 640.2500
864.6412, 634.7031
865.1233, 592.9375
865.6054, 522.2188
866.0875, 527.2500
866.5696, 811.9531
867.0518, 1074.500
867.5339, 1091.750
868.0160, 836.2188
868.4981, 652.6250
868.9802, 548.6250
869.4623, 500.6875
869.9445, 525.4531
870.4266, 596.0781
870.9087, 552.7500
871.3908, 409.2656
871.8729, 339.9219
872.3550, 547.6406
872.8372, 779.6250
873.3193, 769.4062
873.8014, 567.8125
874.2835, 487.9688
874.7656, 772.0156
875.2477, 978.7188
875.7299, 980.2344
876.2120, 819.9531
876.6941, 658.8438
877.1762, 496.4375
877.6583, 436.7500
878.1404, 615.1406
878.6226, 827.7031
879.1047, 739.3125
879.5869, 466.2500
880.0690, 305.8281
880.5511, 530.7500
881.0332, 697.1875
881.5153, 613.3750
881.9974, 399.2344
882.4796, 313.2656
882.9617, 381.0469
883.4438, 468.2344
883.9259, 552.3594
884.4080, 612.6406
884.8901, 592.7812
885.3723, 524.9688
885.8544, 486.1719
886.3365, 514.9375
886.8186, 561.5469
887.3007, 641.3281
887.7828, 707.6250
888.2650, 690.2500
888.7471, 534.6250
889.2292, 421.0000
889.7113, 386.7188
890.1934, 383.2500
890.6755, 317.5469
891.1577, 223.3281
891.6398, 267.9375
892.1219, 526.0938
892.6040, 691.5469
893.0861, 364.0781
893.5682, 47.76562
894.0504, 120.9062
894.5325, 455.1250
895.0146, 693.2188
895.4967, 453.4219
895.9788, 130.5938
896.4609, 85.28125
896.9431, 265.7969
897.4252, 351.0469
897.9073, 316.5469
898.3894, 237.8594
898.8715, 90.43750
899.3536, 3.484375
899.8358, 155.8594
900.3179, 595.2031
900.8000, 776.9531
901.2821, 476.9688
901.7642, 170.7656
902.2463, 90.14062
902.7285, 196.7812
903.2106, 175.2188
903.6927, 31.34375
904.1748, 74.23438
904.6569, 8.140625
905.1390, 136.5781
905.6212, 176.2812
906.1033, 140.6406
906.5854, 90.26562
907.0675, 16.45312
907.5496, 63.79688
908.0317, 4.937500
908.5139, 138.7344
908.9960, 174.4219
909.4781, 111.3125
909.9602, 47.48438
910.4423, 1.046875
910.9244, 4.296875
911.4066, 109.9375
911.8887, 276.0781
912.3708, 371.6094
912.8529, 253.2812
913.3350, 192.6406
913.8171, 304.3594
914.2993, 448.6719
914.7814, 413.6094
915.2635, 180.5000
915.7456, 19.39062
916.2277, 26.34375
916.7098, 15.40625
917.1920, 12.57812
917.6741, 3.359375
918.1562, 84.35938
918.6383, 282.4531
919.1204, 388.4531
919.6025, 237.2031
920.0847, 54.40625
920.5668, 4.734375
921.0489, 81.90625
921.5310, 135.1719
922.0131, 151.2656
922.4952, 161.3125
922.9774, 202.9844
923.4595, 248.0781
923.9416, 242.7500
924.4237, 188.3281
924.9058, 153.4219
925.3879, 206.0156
925.8701, 241.2969
926.3522, 204.7656
926.8343, 108.9531
927.3164, 59.00000
927.7985, 60.46875
928.2806, 54.51562
928.7628, 16.34375
929.2449, 81.68750
929.7270, 21.56250
930.2091, 223.2812
930.6912, 337.5000
931.1733, 145.4844
931.6555, 21.09375
932.1376, 168.3750
932.6197, 411.9375
933.1018, 423.3281
933.5839, 153.9844
934.0660, 43.35938
934.5482, 210.5312
935.0303, 434.6250
935.5124, 418.0312
935.9945, 262.7344
936.4766, 136.9688
936.9587, 59.40625
937.4409, 69.21875
937.9230, 281.8438
938.4051, 510.2969
938.8872, 605.4375
939.3693, 543.1250
939.8514, 489.6719
940.3336, 444.2656
940.8157, 418.6406
941.2978, 450.9688
941.7799, 495.0000
942.2620, 483.2344
942.7441, 413.7969
943.2263, 323.7188
943.7084, 127.8906
944.1905, 27.29688
944.6726, 147.0625
945.1547, 437.5469
945.6368, 566.0000
946.1190, 527.3906
946.6011, 454.2344
947.0832, 398.1406
947.5653, 347.3125
948.0474, 257.6094
948.5295, 162.1250
949.0117, 137.4844
949.4938, 268.5469
949.9759, 402.6406
950.4580, 538.4375
950.9401, 642.4219
951.4222, 639.4062
951.9044, 526.9688
952.3865, 468.0625
952.8686, 493.6406
953.3507, 518.0312
953.8328, 399.5938
954.3149, 248.5625
954.7971, 211.6562
955.2792, 340.9531
955.7613, 490.9688
956.2434, 707.5625
956.7255, 854.7656
957.2076, 813.9844
957.6898, 595.0938
958.1719, 506.5938
958.6540, 546.5156
959.1361, 585.4375
959.6182, 516.0312
960.1003, 419.1406
960.5825, 351.9375
961.0646, 319.9375
961.5467, 345.2188
962.0288, 515.9844
962.5109, 608.7031
962.9930, 535.6094
963.4752, 374.5781
963.9573, 317.0312
964.4394, 351.1719
964.9215, 412.1562
965.4036, 512.0156
965.8857, 567.4844
966.3679, 429.2969
966.8500, 236.7344
967.3321, 180.9375
967.8142, 461.4844
968.2963, 538.1406
968.7784, 321.6094
969.2606, 76.68750
969.7427, 117.1875
970.2248, 354.2656
970.7069, 466.5469
971.1890, 430.0156
971.6711, 344.2031
972.1533, 228.3594
972.6354, 122.9062
973.1175, 38.03125
973.5996, 22.73438
974.0817, 38.70312
974.5638, 267.6875
975.0460, 461.5469
975.5281, 537.5469
976.0102, 527.5000
976.4923, 448.6562
976.9744, 338.3594
977.4565, 313.2500
977.9387, 549.6250
978.4208, 717.3125
978.9029, 646.5312
979.3850, 472.0469
979.8671, 364.6094
980.3492, 327.7031
980.8314, 357.5781
981.3135, 469.4375
981.7956, 580.4375
982.2777, 602.4375
982.7598, 563.5312
983.2419, 494.7031
983.7241, 395.7500
984.2062, 313.1875
984.6883, 249.2656
985.1704, 219.6562
985.6525, 246.3438
986.1346, 320.6094
986.6168, 348.7500
987.0989, 329.5781
987.5810, 295.9688
988.0631, 225.5469
988.5452, 176.2812
989.0273, 222.4062
989.5095, 332.2500
989.9916, 425.8438
990.4737, 501.0312
990.9558, 534.7969
991.4379, 514.9688
991.9200, 464.8438
992.4022, 409.2656
992.8843, 365.2031
993.3664, 341.3438
993.8485, 307.9531
994.3306, 336.5781
994.8127, 599.9062
995.2949, 885.2344
995.7770, 967.2969
996.2591, 789.7031
996.7412, 619.6719
997.2233, 459.9219
997.7054, 318.6562
998.1876, 175.0469
998.6697, 63.42188
999.1518, 90.54688
999.6339, 224.2500
1000.116, 341.1406
1000.598, 438.9844
1001.080, 462.2344
1001.562, 295.6562
1002.044, 64.96875
1002.527, 13.09375
1003.009, 65.29688
1003.491, 277.4219
1003.973, 657.8281
1004.455, 988.7188
1004.937, 969.5469
1005.419, 780.0156
1005.901, 632.2500
1006.384, 563.2344
1006.866, 571.8281
1007.348, 749.3281
1007.830, 836.6250
1008.312, 605.7812
1008.794, 146.5625
1009.276, 33.25000
1009.758, 228.7188
1010.240, 416.2656
1010.723, 369.2656
1011.205, 297.5469
1011.687, 343.7969
1012.169, 467.3281
1012.651, 539.8750
1013.133, 517.8438
1013.615, 575.0625
1014.097, 766.0469
1014.580, 968.0312
1015.062, 987.0625
1015.544, 898.1719
1016.026, 860.1250
1016.508, 922.1719
1016.990, 912.4531
1017.472, 660.1250
1017.954, 411.6719
1018.436, 315.8750
1018.919, 365.3438
1019.401, 373.1719
1019.883, 339.2031
1020.365, 351.9062
1020.847, 540.4375
1021.329, 734.8750
1021.811, 744.9688
1022.293, 628.7031
1022.776, 530.4531
1023.258, 487.7656
1023.740, 443.4531
1024.222, 375.0938
1024.704, 332.0938
1025.186, 436.6719
1025.668, 625.5156
1026.150, 647.2344
1026.632, 454.7812
1027.115, 283.5000
1027.597, 318.7344
1028.079, 389.5156
1028.561, 363.5781
1029.043, 246.1719
1029.525, 214.9375
1030.007, 274.9688
1030.489, 380.1875
1030.972, 553.0781
1031.454, 709.1094
1031.936, 714.5469
1032.418, 618.7344
1032.900, 527.6719
1033.382, 526.5781
1033.864, 448.2500
1034.346, 224.1094
1034.828, 10.37500
1035.311, 88.67188
1035.793, 32.98438
1036.275, 15.62500
1036.757, 46.75000
1037.239, 67.59375
1037.721, 80.29688
1038.203, 87.54688
1038.685, 83.43750
1039.167, 71.26562
1039.650, 86.76562
1040.132, 136.6719
1040.614, 179.0781
1041.096, 188.1250
1041.578, 199.0312
1042.060, 308.5156
1042.542, 449.2656
1043.024, 485.1719
1043.507, 268.1406
1043.989, 163.2969
1044.471, 315.1250
1044.953, 505.7344
1045.435, 558.5781
1045.917, 486.2188
1046.399, 463.5156
1046.881, 490.8594
1047.364, 510.7031
1047.846, 479.4844
1048.328, 431.4531
1048.810, 415.7031
1049.292, 404.3125
1049.774, 262.2656
1050.256, 99.59375
1050.738, 248.6094
1051.220, 38.01562
1051.703, 253.7812
1052.185, 160.3281
1052.667, 112.5312
1053.149, 197.7500
1053.631, 26.15625
1054.113, 200.0781
1054.595, 152.2969
1055.077, 124.9844
1055.559, 294.4062
1056.042, 600.1875
1056.524, 594.0625
1057.006, 310.2031
1057.488, 21.04688
1057.970, 234.0000
1058.452, 337.2500
1058.934, 80.15625
1059.416, 340.2344
1059.899, 538.6719
1060.381, 446.5469
1060.863, 352.3906
1061.345, 274.2656
1061.827, 209.3125
1062.309, 167.8438
1062.791, 141.9531
1063.273, 74.40625
1063.755, 37.10938
1064.238, 75.71875
1064.720, 78.39062
1065.202, 198.2812
1065.684, 183.8125
1066.166, 112.8281
1066.648, 265.2656
1067.130, 571.4688
1067.612, 723.9688
1068.094, 568.9844
1068.577, 359.9531
1069.059, 188.8125
1069.541, 80.14062
1070.023, 62.53125
1070.505, 155.2812
1070.987, 210.4219
1071.469, 221.5312
1071.951, 269.1094
1072.434, 485.1719
1072.916, 713.9219
1073.398, 750.0469
1073.880, 639.4219
1074.362, 550.8906
1074.844, 518.0469
1075.326, 513.6719
1075.808, 537.7812
1076.291, 584.6719
1076.773, 679.8281
1077.255, 789.3750
1077.737, 798.6094
1078.219, 686.5000
1078.701, 564.1719
1079.183, 406.4531
1079.665, 344.0781
1080.147, 484.7031
1080.630, 773.4219
1081.112, 872.5938
1081.594, 787.7656
1082.076, 695.2031
1082.558, 682.3438
1083.040, 645.3438
1083.522, 354.5625
1084.004, 43.76562
1084.486, 73.53125
1084.969, 730.7031
1085.451, 959.5312
1085.933, 651.6719
1086.415, 314.5625
1086.897, 404.5156
1087.379, 689.0000
1087.861, 766.6562
1088.343, 667.2188
1088.826, 557.0625
1089.308, 438.5938
1089.790, 397.2344
1090.272, 464.2344
1090.754, 591.0781
1091.236, 740.3281
1091.718, 888.6875
1092.200, 900.5312
1092.682, 737.6250
1093.165, 598.4531
1093.647, 635.0625
1094.129, 726.9688
1094.611, 823.9375
1095.093, 912.7188
1095.575, 879.2969
1096.057, 716.8438
1096.539, 599.0156
1097.022, 588.5156
1097.504, 652.7812
1097.986, 891.3438
1098.468, 1127.344
1098.950, 1086.625
1099.432, 555.4375
1099.914, 217.5469
1100.396, 98.85938
1100.879, 102.4531
1101.361, 235.3594
1101.843, 408.8438
1102.325, 441.4375
1102.807, 361.1562
1103.289, 278.3750
1103.771, 139.5938
1104.253, 149.9062
1104.735, 423.0000
1105.218, 749.7188
1105.700, 809.2344
1106.182, 657.7656
1106.664, 545.1875
1107.146, 498.8281
1107.628, 502.4844
1108.110, 601.5156
1108.592, 671.2031
1109.074, 644.5156
1109.557, 547.6875
1110.039, 503.8125
1110.521, 502.0781
1111.003, 442.4062
1111.485, 280.8750
1111.967, 159.4219
1112.449, 283.6094
1112.931, 484.8281
1113.414, 577.2969
1113.896, 519.5781
1114.378, 455.7812
1114.860, 377.0000
1115.342, 328.5156
1115.824, 347.0938
1116.306, 391.7500
1116.788, 371.5938
1117.271, 334.2969
1117.753, 392.0469
1118.235, 861.5312
1118.717, 970.0156
1119.199, 536.9531
1119.681, 1.703125
1120.163, 222.7344
1120.645, 201.4219
1121.127, 140.2031
1121.609, 55.09375
1122.092, 56.59375
1122.574, 309.7500
1123.056, 454.4688
1123.538, 348.2031
1124.020, 141.2969
1124.502, 162.1094
1124.984, 378.5625
1125.466, 531.0000
1125.949, 572.0000
1126.431, 529.4375
1126.913, 333.1719
1127.395, 133.8281
1127.877, 35.89062
1128.359, 35.93750
1128.841, 130.2031
1129.323, 329.1250
1129.806, 423.3438
1130.288, 262.6094
1130.770, 126.0156
1131.252, 413.1562
1131.734, 840.6406
1132.216, 1022.250
1132.698, 852.1719
1133.180, 654.2656
1133.662, 405.1562
1134.145, 232.2812
1134.627, 266.4062
1135.109, 393.0938
1135.591, 435.2812
1136.073, 422.4375
1136.555, 426.5625
1137.037, 514.4688
1137.519, 548.7500
1138.001, 513.0000
1138.484, 440.0938
1138.966, 309.2188
1139.448, 181.4688
1139.930, 240.3750
1140.412, 475.6250
1140.894, 690.6250
1141.376, 765.3750
1141.858, 877.5312
1142.341, 1159.281
1142.823, 1426.062
1143.305, 1249.656
1143.787, 745.5000
1144.269, 433.7812
1144.751, 409.5938
1145.233, 484.3125
1145.715, 648.6250
1146.198, 781.4062
1146.680, 796.3438
1147.162, 730.3750
1147.644, 778.1875
1148.126, 937.9062
1148.608, 1022.594
1149.090, 964.7812
1149.572, 888.3750
1150.054, 908.0312
1150.536, 936.0312
1151.019, 874.4375
1151.501, 710.9375
1151.983, 621.6875
1152.465, 607.7188
1152.947, 642.0312
1153.429, 777.6562
1153.911, 878.9688
1154.393, 740.3438
1154.876, 499.4688
1155.358, 404.7500
1155.840, 509.6250
1156.322, 648.4062
1156.804, 839.9375
1157.286, 983.4062
1157.768, 975.4688
1158.250, 917.4688
1158.733, 924.7500
1159.215, 990.4062
1159.697, 1089.562
1160.179, 1318.531
1160.661, 1331.188
1161.143, 1026.156
1161.625, 671.1250
1162.107, 569.9062
1162.589, 630.4062
1163.072, 737.0312
1163.554, 871.1250
1164.036, 926.9688
1164.518, 818.0625
1165.000, 725.4375
1165.482, 681.1562
1165.964, 695.1250
1166.446, 822.1250
1166.928, 1011.562
1167.411, 1167.562
1167.893, 1280.438
1168.375, 1295.688
1168.857, 1102.625
1169.339, 929.2188
1169.821, 888.9062
1170.303, 909.0312
1170.785, 740.4688
1171.268, 449.3125
1171.750, 246.3125
1172.232, 198.4375
1172.714, 248.0312
1173.196, 508.0938
1173.678, 724.9375
1174.160, 697.7500
1174.642, 483.8438
1175.125, 496.9062
1175.607, 692.6250
1176.089, 823.3750
1176.571, 703.8438
1177.053, 586.7500
1177.535, 636.0625
1178.017, 688.9062
1178.499, 575.3750
1178.981, 300.7812
1179.464, 244.0000
1179.946, 392.1875
1180.428, 540.0938
1180.910, 534.3750
1181.392, 520.2500
1181.874, 627.3750
1182.356, 749.1875
1182.838, 681.5312
1183.320, 412.0312
1183.803, 359.0312
1184.285, 561.8750
1184.767, 743.1562
1185.249, 616.6875
1185.731, 472.6250
1186.213, 591.1562
1186.695, 838.3438
1187.177, 774.4062
1187.660, 364.8438
1188.142, 226.3438
1188.624, 496.0938
1189.106, 746.5938
1189.588, 500.9062
1190.070, 161.7812
1190.552, 70.84375
1191.034, 207.1875
1191.516, 312.9375
1191.999, 388.8438
1192.481, 426.4062
1192.963, 418.5625
1193.445, 396.4688
1193.927, 416.0000
1194.409, 420.3125
1194.891, 304.3750
1195.373, 59.31250
1195.855, 76.75000
1196.338, 400.6875
1196.820, 601.0000
1197.302, 468.9688
1197.784, 227.7500
1198.266, 16.21875
1198.748, 104.8750
1199.230, 1.437500
1199.712, 405.4688
1200.195, 531.7188
1200.677, 337.6562
1201.159, 139.3438
1201.641, 110.4062
1202.123, 156.1250
1202.605, 183.2812
1203.087, 205.7500
1203.569, 263.9375
1204.052, 440.9062
1204.534, 361.5312
1205.016, 34.31250
1205.498, 327.2500
1205.980, 95.75000
1206.462, 286.5000
1206.944, 405.1875
1207.426, 337.1875
1207.908, 244.2812
1208.391, 101.1875
1208.873, 81.56250
1209.355, 215.3125
1209.837, 351.8125
1210.319, 347.9062
1210.801, 288.0312
1211.283, 253.9062
1211.765, 245.6562
1212.247, 263.7812
1212.730, 358.5312
1213.212, 280.5938
1213.694, 44.50000
1214.176, 309.7500
1214.658, 102.5938
1215.140, 242.4688
1215.622, 333.8438
1216.104, 193.6875
1216.587, 74.84375
1217.069, 35.78125
1217.551, 1.906250
1218.033, 226.5000
1218.515, 482.4688
1218.997, 596.0938
1219.479, 623.5938
1219.961, 640.0312
1220.443, 640.7812
1220.926, 493.5938
1221.408, 112.8438
1221.890, 56.90625
1222.372, 133.7500
1222.854, 405.9688
1223.336, 446.0000
1223.818, 367.1875
1224.300, 269.6562
1224.782, 166.6250
1225.265, 181.0938
1225.747, 358.6562
1226.229, 410.9375
1226.711, 194.2188
1227.193, 29.15625
1227.675, 124.5000
1228.157, 415.0000
1228.639, 549.5938
1229.122, 481.6250
1229.604, 439.0000
1230.086, 429.0938
1230.568, 389.7812
1231.050, 273.5938
1231.532, 167.2812
1232.014, 208.9375
1232.496, 297.5938
1232.979, 284.9688
1233.461, 136.9062
1233.943, 154.6562
1234.425, 359.8750
1234.907, 508.2812
1235.389, 470.7188
1235.871, 350.0938
1236.353, 113.9375
1236.835, 69.31250
1237.318, 99.18750
1237.800, 711.7812
1238.282, 908.9375
1238.764, 671.2188
1239.246, 376.3750
1239.728, 154.9375
1240.210, 63.81250
1240.692, 271.9375
1241.175, 579.5312
1241.657, 704.5938
1242.139, 611.9688
1242.621, 546.0000
1243.103, 506.7812
1243.585, 469.5000
1244.067, 405.5938
1244.549, 352.0312
1245.031, 319.6562
1245.514, 324.2188
1245.996, 398.6562
1246.478, 557.9688
1246.960, 594.3438
1247.442, 511.2500
1247.924, 452.1250
1248.406, 526.5000
1248.888, 615.7812
1249.370, 704.8438
1249.853, 763.5625
1250.335, 724.9688
1250.817, 595.1250
1251.299, 603.7188
1251.781, 749.2500
1252.263, 863.1875
1252.745, 789.3438
1253.227, 722.8438
1253.710, 787.3438
1254.192, 878.0625
1254.674, 860.7188
1255.156, 747.3438
1255.638, 604.1875
1256.120, 441.0000
1256.602, 309.9375
1257.084, 183.7500
1257.567, 188.9062
1258.049, 394.3438
1258.531, 691.9062
1259.013, 972.3125
1259.495, 1214.406
1259.977, 1343.344
1260.459, 1342.312
1260.941, 1254.500
1261.423, 968.8750
1261.906, 738.5312
1262.388, 616.0938
1262.870, 577.2500
1263.352, 622.0938
1263.834, 713.3750
1264.316, 746.5938
1264.798, 708.6562
1265.280, 744.1875
1265.762, 983.7188
1266.245, 1121.156
1266.727, 1094.281
1267.209, 971.8750
1267.691, 782.1875
1268.173, 593.2188
1268.655, 525.2188
1269.137, 585.7500
1269.619, 669.3750
1270.102, 772.6250
1270.584, 876.0625
1271.066, 990.2188
1271.548, 1049.094
1272.030, 889.9375
1272.512, 680.1250
1272.994, 648.9375
1273.476, 798.1562
1273.958, 829.2188
1274.441, 696.0000
1274.923, 631.5625
1275.405, 690.1875
1275.887, 815.5938
1276.369, 1064.844
1276.851, 1263.594
1277.333, 1178.500
1277.815, 858.8125
1278.297, 639.5938
1278.780, 523.2500
1279.262, 492.4375
1279.744, 550.0938
1280.226, 652.5938
1280.708, 808.0312
1281.190, 956.0312
1281.672, 1043.875
1282.154, 1091.125
1282.637, 1186.656
1283.119, 1316.594
1283.601, 1323.969
1284.083, 1155.125
1284.565, 1022.188
1285.047, 1134.875
1285.529, 1222.406
1286.011, 1135.812
1286.494, 944.2188
1286.976, 824.9688
1287.458, 770.2188
1287.940, 760.1562
1288.422, 793.2812
1288.904, 848.7812
1289.386, 938.2812
1289.868, 1028.938
1290.350, 1128.969
1290.833, 1195.219
1291.315, 1107.906
1291.797, 931.0312
1292.279, 789.3750
1292.761, 709.0312
1293.243, 628.5625
1293.725, 522.4688
1294.207, 459.9688
1294.689, 468.1875
1295.172, 518.1250
1295.654, 552.6875
1296.136, 610.8125
1296.618, 795.4375
1297.100, 1139.094
1297.582, 1198.875
1298.064, 933.5000
1298.546, 636.6250
1299.029, 364.5000
1299.511, 204.6875
1299.993, 364.6875
1300.475, 597.3125
1300.957, 634.5938
1301.439, 505.8750
1301.921, 446.9688
1302.403, 456.2500
1302.885, 493.0938
1303.368, 567.6250
1303.850, 575.3125
1304.332, 371.2188
1304.814, 143.1562
1305.296, 30.34375
1305.778, 119.0625
1306.260, 47.93750
1306.742, 399.8750
1307.224, 663.6562
1307.707, 768.9375
1308.189, 793.1250
1308.671, 723.2188
1309.153, 623.5000
1309.635, 498.0625
1310.117, 380.2188
1310.599, 153.8750
1311.081, 139.5312
1311.564, 213.1562
1312.046, 388.4688
1312.528, 404.8438
1313.010, 195.7188
1313.492, 32.53125
1313.974, 0.7500000
1314.456, 25.59375
1314.938, 0.0000000E+00
##END=



