##NAMES=Beidellite
##RRUFFID=R070244
##IDEAL CHEMISTRY=(Na,Ca)_0.3_Al_2_(Si,Al)_4_O_10_(OH)_2_&#183;nH_2_O
##LOCALITY=Fort Sandeman, Pakistan
##OWNER=RRUFF
##SOURCE=Michael Scott
##DESCRIPTION=Matted fibrous tan crystals (mountain leather)
##STATUS=The identification of this mineral is not yet confirmed.
##URL=rruff.info/R070244
118.1267, 0.0000000E+00
118.6088, 54.15411
119.0909, 87.68970
119.5731, 107.0280
120.0552, 166.8044
120.5373, 216.2854
121.0194, 233.1969
121.5015, 256.0931
121.9836, 268.9341
122.4658, 238.2241
122.9479, 184.7546
123.4300, 129.2252
123.9121, 72.19104
124.3942, 19.32190
124.8763, 19.88220
125.3585, 42.77283
125.8406, 53.41382
126.3227, 48.02661
126.8048, 34.54309
127.2869, 21.62305
127.7690, 15.60913
128.2512, 11.74731
128.7333, 4.815918
129.2154, 40.24023
129.6975, 81.94580
130.1796, 130.2490
130.6617, 182.2207
131.1439, 233.0737
131.6260, 280.0376
132.1081, 323.5649
132.5902, 367.3291
133.0723, 428.4294
133.5544, 471.2563
134.0366, 484.9556
134.5187, 474.9551
135.0008, 450.1052
135.4829, 414.7979
135.9650, 369.6128
136.4471, 327.3169
136.9293, 278.4761
137.4114, 241.4443
137.8935, 219.2539
138.3756, 213.1987
138.8577, 225.1055
139.3398, 255.8398
139.8220, 305.8213
140.3041, 382.0513
140.7862, 481.6650
141.2683, 602.9805
141.7504, 740.5996
142.2325, 896.9727
142.7147, 1081.892
143.1968, 1308.590
143.6789, 1577.235
144.1610, 1838.008
144.6431, 2088.523
145.1252, 2332.995
145.6074, 2571.667
146.0895, 2805.475
146.5716, 3038.534
147.0537, 3274.165
147.5358, 3511.798
148.0179, 3746.904
148.5001, 3999.177
148.9822, 4234.458
149.4643, 4431.389
149.9464, 4590.161
150.4285, 4715.476
150.9106, 4811.362
151.3928, 4874.143
151.8749, 4906.742
152.3570, 4894.310
152.8391, 4860.533
153.3212, 4827.380
153.8033, 4796.416
154.2855, 4757.424
154.7676, 4694.326
155.2497, 4614.457
155.7318, 4549.213
156.2139, 4512.029
156.6960, 4487.661
157.1782, 4455.792
157.6603, 4413.036
158.1424, 4378.787
158.6245, 4371.406
159.1066, 4384.356
159.5887, 4404.792
160.0709, 4422.743
160.5530, 4448.682
161.0351, 4497.900
161.5172, 4572.322
161.9993, 4662.088
162.4814, 4769.510
162.9636, 4886.380
163.4457, 5001.818
163.9278, 5107.426
164.4099, 5209.495
164.8920, 5322.367
165.3741, 5454.160
165.8563, 5572.294
166.3384, 5649.104
166.8205, 5699.864
167.3026, 5748.191
167.7847, 5800.800
168.2668, 5858.401
168.7490, 5928.378
169.2311, 6024.827
169.7132, 6101.828
170.1953, 6128.273
170.6774, 6122.770
171.1595, 6111.939
171.6417, 6105.912
172.1238, 6103.174
172.6059, 6099.961
173.0880, 6095.905
173.5701, 6092.205
174.0522, 6098.944
174.5344, 6105.390
175.0165, 6090.928
175.4986, 6032.852
175.9807, 5944.225
176.4628, 5910.673
176.9449, 5972.402
177.4271, 6015.300
177.9092, 5985.757
178.3913, 5916.423
178.8734, 5847.609
179.3555, 5793.875
179.8376, 5757.879
180.3197, 5753.168
180.8019, 5806.324
181.2840, 5844.094
181.7661, 5832.434
182.2482, 5797.444
182.7303, 5773.729
183.2124, 5782.789
183.6946, 5808.665
184.1767, 5802.975
184.6588, 5747.396
185.1409, 5689.180
185.6230, 5633.079
186.1051, 5583.957
186.5873, 5551.285
187.0694, 5542.366
187.5515, 5543.648
188.0336, 5518.706
188.5157, 5450.635
188.9978, 5383.393
189.4800, 5314.177
189.9621, 5255.289
190.4442, 5227.685
190.9263, 5243.600
191.4084, 5276.008
191.8905, 5254.183
192.3727, 5134.088
192.8548, 5037.445
193.3369, 4993.809
193.8190, 4975.039
194.3011, 4954.170
194.7832, 4920.449
195.2654, 4882.611
195.7475, 4861.035
196.2296, 4870.813
196.7117, 4868.938
197.1938, 4836.506
197.6759, 4799.337
198.1581, 4786.955
198.6402, 4808.367
199.1223, 4836.346
199.6044, 4814.318
200.0865, 4700.020
200.5686, 4620.494
201.0508, 4612.495
201.5329, 4621.203
202.0150, 4604.990
202.4971, 4552.437
202.9792, 4479.756
203.4613, 4411.631
203.9435, 4348.342
204.4256, 4289.558
204.9077, 4237.146
205.3898, 4187.186
205.8719, 4133.238
206.3540, 4075.723
206.8362, 4024.739
207.3183, 4001.643
207.8004, 4034.719
208.2825, 4020.523
208.7646, 3925.657
209.2467, 3815.267
209.7289, 3720.103
210.2110, 3647.185
210.6931, 3591.255
211.1752, 3549.268
211.6573, 3526.911
212.1395, 3497.257
212.6216, 3455.039
213.1037, 3410.521
213.5858, 3365.085
214.0679, 3320.926
214.5500, 3282.592
215.0322, 3255.246
215.5143, 3240.307
215.9964, 3226.971
216.4785, 3217.844
216.9606, 3208.086
217.4427, 3198.625
217.9249, 3187.436
218.4070, 3169.566
218.8891, 3138.555
219.3712, 3093.662
219.8533, 3062.451
220.3354, 3071.125
220.8176, 3068.316
221.2997, 3035.684
221.7818, 2980.607
222.2639, 2918.746
222.7460, 2859.906
223.2281, 2804.213
223.7103, 2754.141
224.1924, 2712.611
224.6745, 2674.160
225.1566, 2634.840
225.6387, 2598.391
226.1208, 2572.611
226.6030, 2563.492
227.0851, 2564.729
227.5672, 2549.684
228.0493, 2509.520
228.5314, 2463.211
229.0135, 2409.232
229.4957, 2353.105
229.9778, 2302.121
230.4599, 2259.848
230.9420, 2221.014
231.4241, 2171.740
231.9062, 2103.781
232.3884, 2039.287
232.8705, 1967.504
233.3526, 1906.961
233.8347, 1881.117
234.3168, 1896.369
234.7989, 1926.744
235.2811, 1926.270
235.7632, 1881.764
236.2453, 1837.568
236.7274, 1798.264
237.2095, 1760.363
237.6916, 1716.656
238.1738, 1668.592
238.6559, 1625.986
239.1380, 1600.637
239.6201, 1595.252
240.1022, 1600.430
240.5843, 1640.615
241.0665, 1670.539
241.5486, 1659.211
242.0307, 1611.021
242.5128, 1557.748
242.9949, 1535.348
243.4770, 1548.604
243.9592, 1535.955
244.4413, 1461.145
244.9234, 1395.219
245.4055, 1369.443
245.8876, 1374.820
246.3697, 1385.850
246.8519, 1392.875
247.3340, 1393.748
247.8161, 1355.090
248.2982, 1221.648
248.7803, 1122.375
249.2624, 1123.527
249.7446, 1181.201
250.2267, 1225.092
250.7088, 1218.143
251.1909, 1173.082
251.6730, 1125.686
252.1551, 1074.301
252.6373, 1022.000
253.1194, 957.5684
253.6015, 898.3027
254.0836, 865.9434
254.5657, 871.0566
255.0478, 895.2109
255.5300, 913.5469
256.0121, 928.5566
256.4942, 927.2812
256.9763, 889.6133
257.4584, 843.2461
257.9406, 807.0566
258.4227, 784.9805
258.9048, 773.6621
259.3869, 775.3242
259.8690, 790.4902
260.3511, 791.4375
260.8333, 762.2617
261.3154, 725.8770
261.7975, 700.4102
262.2796, 687.2207
262.7617, 675.2754
263.2438, 643.7090
263.7260, 598.6094
264.2081, 589.7715
264.6902, 644.0098
265.1723, 701.3730
265.6544, 721.0508
266.1365, 711.4414
266.6187, 692.8945
267.1008, 664.9570
267.5829, 634.0039
268.0650, 622.2305
268.5471, 640.5527
269.0292, 645.3164
269.5114, 583.1934
269.9935, 488.3789
270.4756, 420.5098
270.9577, 401.2305
271.4398, 406.6602
271.9219, 422.0293
272.4041, 448.2793
272.8862, 451.6289
273.3683, 399.4023
273.8504, 320.5371
274.3325, 272.8613
274.8146, 272.6797
275.2968, 278.8926
275.7789, 259.5254
276.2610, 221.9629
276.7431, 197.3848
277.2252, 199.5352
277.7073, 219.1934
278.1895, 240.6328
278.6716, 263.8789
279.1537, 274.0215
279.6358, 265.2656
280.1179, 241.6016
280.6000, 202.9004
281.0822, 145.7070
281.5643, 92.87695
282.0464, 77.25977
282.5285, 104.2480
283.0106, 125.0762
283.4927, 123.0039
283.9749, 114.4219
284.4570, 118.9512
284.9391, 137.6465
285.4212, 152.0527
285.9033, 143.0039
286.3854, 111.3691
286.8676, 102.8340
287.3497, 139.4727
287.8318, 174.7617
288.3139, 192.1699
288.7960, 191.8203
289.2781, 171.0352
289.7603, 124.2188
290.2424, 60.60742
290.7245, 22.43359
291.2066, 29.75000
291.6887, 35.26953
292.1708, 40.27734
292.6530, 37.30859
293.1351, 7.580078
293.6172, 55.04102
294.0993, 121.5605
294.5814, 139.4258
295.0635, 66.64844
295.5457, 19.13281
296.0278, 4.156250
296.5099, 11.94727
296.9920, 45.19141
297.4741, 96.96680
297.9562, 143.2695
298.4384, 159.0820
298.9205, 140.6855
299.4026, 120.6348
299.8847, 94.36719
300.3668, 72.07617
300.8489, 51.84180
301.3310, 37.11133
301.8131, 37.98633
302.2953, 64.67773
302.7774, 108.9609
303.2595, 126.7090
303.7416, 94.35156
304.2237, 69.77539
304.7058, 73.81445
305.1880, 87.39453
305.6701, 89.02930
306.1522, 70.08203
306.6343, 39.92578
307.1164, 10.74609
307.5985, 21.50195
308.0807, 37.31445
308.5628, 11.72266
309.0449, 15.27539
309.5270, 18.76953
310.0091, 2.746094
310.4912, 31.03125
310.9734, 52.09180
311.4555, 66.20703
311.9376, 74.89453
312.4197, 77.85352
312.9018, 76.21875
313.3839, 73.02344
313.8661, 66.62305
314.3482, 52.23828
314.8303, 22.98242
315.3124, 13.27930
315.7945, 44.77539
316.2766, 71.79102
316.7588, 89.88672
317.2409, 92.85156
317.7230, 86.53320
318.2051, 79.00781
318.6872, 65.11914
319.1693, 60.30469
319.6515, 89.06836
320.1336, 141.2793
320.6157, 170.4551
321.0978, 157.7207
321.5799, 119.8516
322.0620, 76.08789
322.5442, 21.78711
323.0263, 11.96094
323.5084, 1.791016
323.9905, 33.02344
324.4726, 43.44141
324.9547, 26.43359
325.4369, 6.222656
325.9190, 50.16602
326.4011, 107.5859
326.8832, 125.6367
327.3653, 65.14258
327.8474, 3.126953
328.3296, 20.28516
328.8117, 8.937500
329.2938, 20.97852
329.7759, 62.58203
330.2580, 110.5234
330.7401, 139.5449
331.2223, 134.9121
331.7044, 131.0449
332.1865, 135.7891
332.6686, 141.2930
333.1507, 139.1387
333.6328, 126.8164
334.1150, 105.5391
334.5971, 71.93359
335.0792, 8.677734
335.5613, 16.79688
336.0434, 25.81445
336.5255, 74.19141
337.0077, 97.95703
337.4898, 98.46094
337.9719, 92.63477
338.4540, 95.41992
338.9361, 103.9004
339.4182, 88.92383
339.9004, 21.91992
340.3825, 25.43359
340.8646, 22.39844
341.3467, 6.115234
341.8288, 29.19727
342.3109, 35.14258
342.7931, 33.14844
343.2752, 35.46094
343.7573, 42.23047
344.2394, 54.28906
344.7215, 82.50781
345.2036, 106.9473
345.6858, 107.4648
346.1679, 84.22266
346.6500, 62.41797
347.1321, 57.54883
347.6142, 66.08008
348.0963, 80.10156
348.5785, 100.8730
349.0606, 121.4492
349.5427, 131.6230
350.0248, 136.7422
350.5069, 153.4668
350.9890, 212.7461
351.4712, 260.5781
351.9533, 232.1797
352.4354, 145.3301
352.9175, 94.84375
353.3996, 133.8750
353.8817, 222.5332
354.3639, 254.3828
354.8460, 207.2520
355.3281, 162.1074
355.8102, 128.4336
356.2923, 110.5605
356.7744, 123.5996
357.2566, 167.7969
357.7387, 212.4902
358.2208, 222.4062
358.7029, 189.6875
359.1850, 166.2969
359.6671, 154.0234
360.1493, 146.5273
360.6314, 140.5469
361.1135, 137.3555
361.5956, 141.8496
362.0777, 156.9160
362.5598, 176.7266
363.0420, 180.8750
363.5241, 152.5527
364.0062, 136.5469
364.4883, 153.3789
364.9704, 174.5918
365.4525, 174.0742
365.9347, 147.1016
366.4168, 111.7285
366.8989, 82.79102
367.3810, 58.69727
367.8631, 57.96289
368.3452, 98.88477
368.8274, 144.3457
369.3095, 174.9707
369.7916, 194.7070
370.2737, 214.4219
370.7558, 240.2656
371.2379, 268.8125
371.7201, 299.1250
372.2022, 333.3457
372.6843, 348.5469
373.1664, 317.7871
373.6485, 271.1699
374.1306, 258.1758
374.6128, 291.0898
375.0949, 319.1660
375.5770, 310.8730
376.0591, 280.7480
376.5412, 256.2656
377.0233, 242.1328
377.5055, 232.6445
377.9876, 223.3594
378.4697, 215.2148
378.9518, 207.3262
379.4339, 192.6348
379.9160, 187.1738
380.3982, 211.7188
380.8803, 253.5137
381.3624, 276.5371
381.8445, 260.0508
382.3266, 219.2988
382.8087, 198.4258
383.2909, 217.9961
383.7730, 233.0059
384.2551, 242.4922
384.7372, 245.5918
385.2193, 237.4707
385.7014, 218.0879
386.1836, 199.0352
386.6657, 192.3359
387.1478, 198.8906
387.6299, 217.4414
388.1120, 275.1777
388.5941, 310.3184
389.0763, 277.1270
389.5584, 215.2578
390.0405, 191.4551
390.5226, 241.4355
391.0047, 319.3809
391.4868, 353.1562
391.9690, 338.7676
392.4511, 311.4883
392.9332, 258.7441
393.4153, 215.5449
393.8974, 223.8926
394.3795, 283.1855
394.8617, 337.9805
395.3438, 355.0547
395.8259, 352.0215
396.3080, 359.0488
396.7901, 379.3496
397.2722, 401.5312
397.7544, 421.1465
398.2365, 433.4316
398.7186, 423.5488
399.2007, 371.6348
399.6828, 323.6113
400.1649, 301.9902
400.6471, 293.2246
401.1292, 270.3887
401.6113, 224.4141
402.0934, 179.5781
402.5755, 174.0156
403.0576, 226.5391
403.5398, 260.4785
404.0219, 265.5234
404.5040, 263.5430
404.9861, 270.2031
405.4682, 280.0742
405.9503, 275.9219
406.4325, 245.3008
406.9146, 196.7285
407.3967, 158.9316
407.8788, 128.6758
408.3609, 116.9844
408.8430, 139.8711
409.3252, 171.6055
409.8073, 194.4629
410.2894, 203.7539
410.7715, 203.1211
411.2536, 193.9844
411.7357, 179.4590
412.2179, 171.6875
412.7000, 172.0918
413.1821, 175.2109
413.6642, 172.3184
414.1463, 170.4043
414.6284, 188.0605
415.1106, 256.9824
415.5927, 313.0293
416.0748, 290.2539
416.5569, 212.8594
417.0390, 158.5020
417.5211, 155.4180
418.0033, 180.1113
418.4854, 199.6719
418.9675, 213.9531
419.4496, 222.4551
419.9317, 214.0293
420.4138, 209.3574
420.8960, 236.8672
421.3781, 281.9980
421.8602, 296.8828
422.3423, 247.5156
422.8244, 152.9648
423.3065, 94.11719
423.7887, 80.72266
424.2708, 88.88281
424.7529, 147.0840
425.2350, 203.1914
425.7171, 205.3262
426.1992, 153.0254
426.6814, 97.85547
427.1635, 89.69922
427.6456, 124.5312
428.1277, 161.6055
428.6098, 206.5957
429.0919, 242.6855
429.5741, 261.6348
430.0562, 265.9043
430.5383, 254.8281
431.0204, 220.5254
431.5025, 187.3516
431.9846, 183.6875
432.4668, 200.4590
432.9489, 198.5664
433.4310, 163.1016
433.9131, 121.7520
434.3952, 105.3086
434.8773, 115.6367
435.3595, 142.0508
435.8416, 222.2578
436.3237, 284.2969
436.8058, 265.6133
437.2879, 191.9668
437.7701, 132.9141
438.2522, 124.9707
438.7343, 150.6387
439.2164, 164.9102
439.6985, 157.7539
440.1806, 154.7266
440.6628, 162.2656
441.1449, 169.7891
441.6270, 166.9941
442.1091, 156.3457
442.5912, 148.9746
443.0733, 152.0645
443.5555, 165.2422
444.0376, 192.8691
444.5197, 246.9355
445.0018, 283.0605
445.4839, 270.5801
445.9660, 239.1719
446.4482, 215.6934
446.9303, 203.6816
447.4124, 191.7520
447.8945, 171.2129
448.3766, 151.3145
448.8587, 151.6699
449.3409, 175.8027
449.8230, 202.6543
450.3051, 218.2812
450.7872, 222.7793
451.2693, 220.6016
451.7514, 204.7949
452.2336, 192.7422
452.7157, 195.0957
453.1978, 201.9277
453.6799, 196.8379
454.1620, 176.2383
454.6441, 155.4434
455.1263, 158.0156
455.6084, 192.2383
456.0905, 199.5117
456.5726, 146.3750
457.0547, 101.9941
457.5368, 87.41797
458.0190, 95.43359
458.5011, 116.0664
458.9832, 147.5938
459.4653, 177.6309
459.9474, 188.9160
460.4295, 181.1133
460.9117, 161.4492
461.3938, 118.2773
461.8759, 81.24023
462.3580, 80.57031
462.8401, 110.3066
463.3222, 140.9336
463.8044, 168.2305
464.2865, 190.0840
464.7686, 206.5996
465.2507, 216.3477
465.7328, 212.1152
466.2149, 189.0352
466.6971, 158.2930
467.1792, 140.9629
467.6613, 143.8398
468.1434, 146.8516
468.6255, 150.4297
469.1076, 152.8184
469.5898, 150.3828
470.0719, 146.0254
470.5540, 148.2441
471.0361, 164.0352
471.5182, 186.3730
472.0003, 192.4902
472.4825, 172.6484
472.9646, 163.5938
473.4467, 193.5254
473.9288, 221.2012
474.4109, 212.1406
474.8930, 168.5176
475.3752, 130.9766
475.8573, 126.8711
476.3394, 142.0547
476.8215, 155.1074
477.3036, 165.4297
477.7857, 171.4414
478.2679, 173.5723
478.7500, 170.1582
479.2321, 153.9551
479.7142, 116.3203
480.1963, 88.94141
480.6784, 86.59570
481.1606, 90.03320
481.6427, 76.50781
482.1248, 49.54297
482.6069, 37.33398
483.0890, 63.15430
483.5711, 116.5059
484.0533, 142.3535
484.5354, 129.2305
485.0175, 104.2559
485.4996, 52.10742
485.9817, 5.583984
486.4638, 5.679688
486.9460, 19.11719
487.4281, 55.61719
487.9102, 92.25195
488.3923, 125.8047
488.8744, 145.7832
489.3565, 150.9395
489.8387, 146.5195
490.3208, 128.0254
490.8029, 105.4590
491.2850, 100.3828
491.7671, 119.6992
492.2492, 135.6328
492.7314, 138.7051
493.2135, 134.3652
493.6956, 128.3848
494.1777, 120.8301
494.6598, 109.4199
495.1419, 90.72461
495.6241, 66.52539
496.1062, 50.58789
496.5883, 40.65234
497.0704, 44.47461
497.5525, 77.78125
498.0346, 113.5703
498.5168, 131.2793
498.9989, 128.1641
499.4810, 111.7422
499.9631, 77.76562
500.4452, 34.68945
500.9273, 19.92578
501.4095, 41.17773
501.8916, 58.97266
502.3737, 56.98633
502.8558, 40.25391
503.3379, 13.22461
503.8200, 31.24609
504.3022, 54.72266
504.7843, 18.83008
505.2664, 31.94336
505.7485, 37.87500
506.2306, 0.7246090
506.7127, 28.72852
507.1949, 15.27344
507.6770, 30.24023
508.1591, 60.18164
508.6412, 62.44727
509.1233, 66.08594
509.6054, 70.22461
510.0876, 78.09180
510.5697, 104.0391
511.0518, 139.4590
511.5339, 147.5605
512.0161, 83.12891
512.4982, 15.56641
512.9803, 31.86328
513.4624, 50.49219
513.9445, 119.0508
514.4266, 132.1191
514.9088, 113.5332
515.3909, 95.24609
515.8730, 77.91797
516.3551, 56.77344
516.8372, 15.11719
517.3193, 19.55664
517.8015, 15.97656
518.2836, 19.09766
518.7657, 52.31250
519.2478, 65.51172
519.7299, 69.10156
520.2120, 82.00977
520.6942, 113.9980
521.1763, 137.6074
521.6584, 167.3262
522.1405, 176.6152
522.6226, 133.6875
523.1047, 58.43359
523.5869, 2.070313
524.0690, 5.199219
524.5511, 11.41016
525.0332, 8.712891
525.5153, 13.04883
525.9974, 22.34180
526.4796, 10.85547
526.9617, 14.10742
527.4438, 56.79297
527.9259, 113.4922
528.4080, 140.5625
528.8901, 100.4219
529.3723, 60.15625
529.8544, 66.80664
530.3365, 100.3516
530.8186, 115.7969
531.3007, 98.68945
531.7828, 80.51172
532.2650, 113.2930
532.7471, 215.2402
533.2292, 253.3809
533.7113, 162.7031
534.1934, 81.53516
534.6755, 50.88281
535.1577, 56.64648
535.6398, 79.73633
536.1219, 118.0742
536.6040, 151.6699
537.0861, 156.3047
537.5682, 140.3848
538.0504, 132.8203
538.5325, 139.4805
539.0146, 140.0527
539.4967, 117.8105
539.9788, 77.35742
540.4609, 43.41992
540.9431, 7.216797
541.4252, 11.15625
541.9073, 3.410156
542.3894, 20.57617
542.8715, 63.42578
543.3536, 116.7617
543.8358, 151.4219
544.3179, 141.6445
544.8000, 98.21289
545.2821, 63.18359
545.7642, 32.30078
546.2463, 21.55078
546.7285, 53.24414
547.2106, 93.50195
547.6926, 119.4512
548.1747, 130.0234
548.6569, 129.6992
549.1390, 116.1230
549.6211, 95.96484
550.1032, 73.60547
550.5853, 50.25391
551.0674, 28.36133
551.5496, 7.080078
552.0317, 3.517578
552.5138, 16.70117
552.9959, 87.36914
553.4780, 121.5664
553.9601, 87.28320
554.4423, 56.41797
554.9244, 71.84570
555.4065, 105.8770
555.8886, 104.3301
556.3707, 47.13672
556.8528, 10.33398
557.3350, 11.43555
557.8171, 100.5254
558.2992, 155.7285
558.7813, 158.3086
559.2634, 159.0645
559.7455, 206.8789
560.2277, 275.8203
560.7098, 283.2988
561.1919, 180.2598
561.6740, 99.81641
562.1561, 111.0547
562.6382, 151.2734
563.1204, 138.7871
563.6025, 75.50000
564.0846, 30.61523
564.5667, 58.76562
565.0488, 137.4844
565.5309, 171.7051
566.0131, 144.6621
566.4952, 113.5898
566.9773, 76.48242
567.4594, 48.09180
567.9415, 39.50586
568.4236, 48.91797
568.9058, 65.71484
569.3879, 89.55273
569.8700, 114.7617
570.3521, 142.0586
570.8342, 166.6328
571.3163, 170.4219
571.7985, 145.3418
572.2806, 106.8750
572.7627, 72.46680
573.2448, 41.85547
573.7269, 20.45508
574.2090, 1.552734
574.6912, 10.79492
575.1733, 19.30078
575.6554, 56.19727
576.1375, 53.27148
576.6196, 3.880859
577.1017, 40.62500
577.5839, 24.18750
578.0660, 34.34375
578.5481, 71.43945
579.0302, 84.39258
579.5123, 90.50000
579.9944, 97.92969
580.4766, 102.6680
580.9587, 93.38867
581.4408, 64.12695
581.9229, 47.40234
582.4050, 51.84961
582.8871, 66.87109
583.3693, 99.15039
583.8514, 134.5391
584.3335, 139.6621
584.8156, 98.54883
585.2977, 46.32031
585.7798, 45.34961
586.2620, 101.3301
586.7441, 136.4082
587.2262, 141.0156
587.7083, 134.1387
588.1904, 118.9141
588.6725, 101.3320
589.1547, 93.08984
589.6368, 101.0117
590.1189, 105.2227
590.6010, 95.83203
591.0831, 73.86523
591.5652, 32.30078
592.0474, 21.86328
592.5295, 50.99023
593.0116, 26.24805
593.4937, 31.23242
593.9758, 52.53320
594.4579, 11.27344
594.9401, 3.951172
595.4222, 42.27734
595.9043, 90.72070
596.3864, 109.5547
596.8685, 106.9941
597.3506, 107.9961
597.8328, 126.0859
598.3149, 142.2090
598.7970, 131.5859
599.2791, 104.7598
599.7612, 91.85547
600.2433, 98.47070
600.7255, 106.0605
601.2076, 96.66406
601.6897, 74.17969
602.1718, 72.22461
602.6539, 126.9102
603.1360, 152.0957
603.6182, 109.4961
604.1003, 60.82617
604.5824, 62.31055
605.0645, 104.4355
605.5466, 129.5938
606.0287, 94.81445
606.5109, 38.84375
606.9930, 20.67383
607.4751, 37.16211
607.9572, 57.66211
608.4393, 75.10352
608.9214, 89.29492
609.4036, 102.2051
609.8857, 113.8066
610.3678, 112.4121
610.8499, 93.71484
611.3320, 69.10156
611.8141, 25.24805
612.2963, 13.66406
612.7784, 16.90820
613.2605, 14.03320
613.7426, 48.71875
614.2247, 67.05273
614.7068, 69.93555
615.1890, 52.76367
615.6711, 13.64258
616.1532, 0.2929690
616.6353, 38.77344
617.1174, 85.96680
617.5995, 88.82227
618.0817, 46.20898
618.5638, 20.85742
619.0459, 17.37305
619.5280, 28.93750
620.0101, 74.16797
620.4922, 122.4629
620.9744, 130.6758
621.4565, 94.57031
621.9386, 49.13672
622.4207, 22.28516
622.9028, 13.31250
623.3849, 23.63086
623.8671, 56.69336
624.3492, 90.19336
624.8313, 123.5742
625.3134, 147.5117
625.7955, 145.5527
626.2776, 119.4746
626.7598, 98.65430
627.2419, 81.00391
627.7240, 76.03711
628.2061, 106.1348
628.6882, 145.0801
629.1703, 153.7246
629.6525, 124.1660
630.1346, 75.53125
630.6167, 17.64258
631.0988, 41.89648
631.5809, 55.29102
632.0630, 11.14648
632.5452, 34.61523
633.0273, 70.31641
633.5094, 96.96875
633.9915, 114.3359
634.4736, 122.7051
634.9557, 128.8867
635.4379, 141.8691
635.9200, 151.1064
636.4021, 146.1123
636.8842, 133.6113
637.3663, 126.0078
637.8484, 125.3584
638.3306, 120.9082
638.8127, 98.51172
639.2948, 63.57324
639.7769, 51.70117
640.2590, 68.52344
640.7411, 90.01074
641.2233, 122.0508
641.7054, 143.3105
642.1875, 119.5312
642.6696, 56.02734
643.1517, 22.02344
643.6339, 52.32324
644.1160, 93.92285
644.5981, 129.8018
645.0802, 153.2246
645.5623, 152.1367
646.0444, 125.7793
646.5266, 85.57422
647.0087, 35.76074
647.4908, 15.13086
647.9729, 20.14160
648.4550, 34.08594
648.9371, 81.90430
649.4193, 110.5479
649.9014, 121.3691
650.3835, 110.5117
650.8656, 84.23145
651.3477, 64.34180
651.8298, 55.62402
652.3120, 49.75488
652.7941, 37.36816
653.2762, 28.68457
653.7583, 46.55664
654.2404, 87.38867
654.7225, 108.9912
655.2047, 67.86719
655.6868, 5.725586
656.1689, 2.608398
656.6510, 112.3926
657.1331, 180.7314
657.6152, 158.9434
658.0974, 114.9072
658.5795, 111.3936
659.0616, 138.5703
659.5437, 153.0889
660.0258, 145.7188
660.5079, 131.8379
660.9901, 107.8799
661.4722, 85.59375
661.9543, 83.96973
662.4364, 98.45996
662.9185, 102.4385
663.4006, 76.34863
663.8828, 34.23145
664.3649, 2.510742
664.8470, 18.96094
665.3291, 23.92773
665.8112, 10.57422
666.2933, 18.82812
666.7755, 80.63867
667.2576, 157.3730
667.7397, 174.8809
668.2218, 77.86133
668.7039, 11.99219
669.1860, 28.08203
669.6682, 66.66406
670.1503, 84.39355
670.6324, 82.71973
671.1145, 81.13086
671.5966, 88.42969
672.0787, 94.65918
672.5609, 78.79102
673.0430, 46.10938
673.5251, 36.13574
674.0072, 54.69629
674.4893, 85.45117
674.9714, 124.5283
675.4536, 163.8379
675.9357, 181.3799
676.4178, 167.2559
676.8999, 154.3271
677.3820, 142.8115
677.8641, 130.9355
678.3463, 111.6348
678.8284, 95.65820
679.3105, 104.0752
679.7926, 140.6826
680.2747, 170.1260
680.7568, 145.2441
681.2390, 90.10645
681.7211, 63.08496
682.2032, 65.28223
682.6853, 73.28906
683.1674, 77.39551
683.6495, 81.32129
684.1317, 91.46875
684.6138, 109.8359
685.0959, 123.6328
685.5780, 140.3389
686.0601, 143.2236
686.5422, 112.2207
687.0244, 75.13281
687.5065, 62.88965
687.9886, 77.88672
688.4707, 95.96387
688.9528, 103.5518
689.4349, 104.7822
689.9171, 102.1943
690.3992, 97.18066
690.8813, 99.62207
691.3634, 112.1436
691.8455, 123.0557
692.3276, 118.2783
692.8098, 101.5391
693.2919, 110.7676
693.7740, 173.0137
694.2561, 200.4609
694.7382, 133.2285
695.2203, 65.73926
695.7025, 72.43555
696.1846, 135.0518
696.6667, 181.6270
697.1488, 194.3027
697.6309, 187.4873
698.1130, 151.1934
698.5952, 109.7295
699.0773, 99.01660
699.5594, 116.1650
700.0415, 130.6582
700.5236, 123.6240
701.0057, 104.0977
701.4879, 82.33301
701.9700, 56.02734
702.4521, 82.65234
702.9342, 198.7344
703.4163, 285.2979
703.8984, 249.6865
704.3806, 145.3350
704.8627, 103.8379
705.3448, 149.8076
705.8269, 179.6758
706.3090, 177.3076
706.7911, 158.8945
707.2733, 123.8213
707.7554, 83.64160
708.2375, 51.57324
708.7196, 32.37988
709.2017, 33.72363
709.6838, 81.08594
710.1660, 149.9736
710.6481, 172.1133
711.1302, 149.3027
711.6123, 126.3320
712.0944, 117.1611
712.5765, 122.4385
713.0587, 147.9150
713.5408, 195.3633
714.0229, 213.4502
714.5050, 165.8828
714.9871, 137.9531
715.4692, 164.9141
715.9514, 198.9131
716.4335, 196.1299
716.9156, 162.2959
717.3977, 137.7012
717.8798, 140.8438
718.3619, 155.3174
718.8441, 173.6289
719.3262, 192.2529
719.8083, 205.0557
720.2904, 211.2930
720.7725, 213.0791
721.2546, 211.9385
721.7368, 209.8877
722.2189, 204.4043
722.7010, 192.0381
723.1831, 176.9072
723.6652, 157.7344
724.1473, 147.2197
724.6295, 160.7324
725.1116, 183.6104
725.5937, 181.7578
726.0758, 141.9629
726.5579, 124.2236
727.0400, 158.5938
727.5222, 198.9385
728.0043, 224.1602
728.4864, 233.7959
728.9685, 226.8496
729.4506, 204.4922
729.9327, 177.1514
730.4149, 147.5479
730.8970, 122.6719
731.3791, 129.6738
731.8612, 163.0166
732.3433, 165.7871
732.8254, 118.2764
733.3076, 55.22070
733.7897, 9.433594
734.2718, 19.22754
734.7539, 34.33887
735.2360, 26.12598
735.7181, 20.43262
736.2003, 36.37305
736.6824, 40.69238
737.1645, 6.338867
737.6466, 80.90723
738.1287, 113.2725
738.6108, 64.75977
739.0930, 21.07031
739.5751, 46.81055
740.0572, 92.24414
740.5393, 91.62500
741.0214, 55.44531
741.5035, 39.77051
741.9857, 71.18359
742.4678, 114.1846
742.9499, 113.8516
743.4320, 74.06348
743.9141, 48.55664
744.3962, 39.22461
744.8784, 44.30371
745.3605, 71.75195
745.8426, 102.0977
746.3247, 106.7783
746.8068, 80.51855
747.2889, 62.52637
747.7711, 59.52148
748.2532, 58.11621
748.7353, 49.45801
749.2174, 45.33691
749.6995, 63.66797
750.1816, 98.16797
750.6638, 120.3936
751.1459, 115.2861
751.6280, 96.37402
752.1101, 61.47852
752.5922, 26.77441
753.0743, 30.01855
753.5565, 70.13867
754.0386, 114.1348
754.5207, 144.2656
755.0028, 155.3145
755.4849, 126.8418
755.9670, 50.84375
756.4492, 12.26953
756.9313, 24.22266
757.4134, 44.83691
757.8955, 59.24121
758.3776, 70.07031
758.8597, 83.73242
759.3419, 101.8408
759.8240, 105.4746
760.3061, 80.78223
760.7882, 56.08496
761.2703, 36.02539
761.7524, 25.22852
762.2346, 33.46777
762.7167, 57.00000
763.1988, 75.54492
763.6809, 74.89062
764.1630, 69.07227
764.6451, 78.49805
765.1273, 94.62012
765.6094, 89.39746
766.0915, 62.46094
766.5736, 49.76758
767.0557, 75.74316
767.5378, 121.7949
768.0200, 150.1152
768.5021, 159.2588
768.9842, 163.1455
769.4663, 162.3154
769.9484, 154.8281
770.4305, 127.6387
770.9127, 101.6426
771.3948, 117.3428
771.8769, 180.7217
772.3590, 205.7930
772.8411, 141.3301
773.3232, 86.54297
773.8054, 86.65820
774.2875, 111.0195
774.7696, 135.8232
775.2517, 152.2148
775.7338, 145.7900
776.2159, 97.14453
776.6981, 46.71582
777.1802, 54.60156
777.6623, 91.63184
778.1444, 81.72461
778.6265, 22.63379
779.1086, 28.40625
779.5908, 39.98242
780.0729, 19.62207
780.5550, 30.79102
781.0371, 119.3418
781.5192, 147.7920
782.0013, 88.00586
782.4835, 44.67480
782.9656, 74.16699
783.4477, 123.3066
783.9298, 112.3682
784.4119, 39.00488
784.8940, 13.75586
785.3762, 100.1787
785.8583, 158.9854
786.3404, 116.6641
786.8225, 60.06934
787.3046, 80.22754
787.7867, 156.3447
788.2689, 193.4658
788.7510, 139.8105
789.2331, 77.07617
789.7152, 79.20508
790.1973, 113.8018
790.6794, 138.3359
791.1616, 146.2539
791.6437, 124.3359
792.1258, 65.41309
792.6079, 9.739258
793.0900, 22.62695
793.5721, 94.90039
794.0543, 115.4189
794.5364, 76.00488
795.0185, 41.76855
795.5006, 24.90918
795.9827, 22.13184
796.4648, 33.25781
796.9470, 56.78516
797.4291, 77.49609
797.9112, 104.0840
798.3933, 114.5303
798.8754, 92.90527
799.3575, 69.75488
799.8397, 69.16016
800.3218, 77.77148
800.8039, 64.72461
801.2860, 18.42480
801.7681, 17.19434
802.2502, 8.025391
802.7324, 10.87988
803.2145, 1.485352
803.6966, 20.12598
804.1787, 20.39062
804.6608, 8.214844
805.1429, 50.68359
805.6251, 104.2861
806.1072, 153.3770
806.5893, 154.0830
807.0714, 115.8643
807.5535, 97.80469
808.0356, 108.2695
808.5178, 117.0576
808.9999, 100.1201
809.4820, 71.61523
809.9641, 70.69434
810.4462, 111.4941
810.9283, 127.1465
811.4105, 105.6953
811.8926, 78.64746
812.3747, 48.51367
812.8568, 25.30664
813.3389, 24.59180
813.8210, 46.34570
814.3032, 62.51562
814.7853, 68.27344
815.2674, 69.51855
815.7495, 51.00488
816.2316, 42.11230
816.7137, 89.93164
817.1959, 171.3145
817.6780, 208.3799
818.1601, 159.6396
818.6422, 102.4131
819.1243, 114.1230
819.6064, 152.5234
820.0886, 145.1152
820.5707, 103.0430
821.0528, 84.51172
821.5349, 109.2148
822.0170, 142.1914
822.4991, 146.9121
822.9813, 126.6035
823.4634, 87.25684
823.9455, 26.45312
824.4276, 9.080078
824.9097, 7.207031
825.3918, 11.25098
825.8740, 31.12695
826.3561, 55.53516
826.8382, 98.37695
827.3203, 191.0518
827.8024, 228.8486
828.2845, 161.9102
828.7667, 100.9697
829.2488, 91.50488
829.7309, 105.7451
830.2130, 114.3486
830.6951, 115.1758
831.1772, 108.2354
831.6594, 85.25781
832.1415, 64.62305
832.6236, 44.44043
833.1057, 37.62012
833.5878, 70.68359
834.0699, 129.9629
834.5521, 165.9531
835.0342, 156.2949
835.5163, 133.9414
835.9984, 124.9062
836.4805, 125.1641
836.9626, 127.8652
837.4448, 133.5107
837.9269, 144.2471
838.4090, 159.9727
838.8911, 168.4658
839.3732, 155.1982
839.8553, 128.4385
840.3375, 120.2520
840.8196, 131.1973
841.3017, 138.9512
841.7838, 139.3184
842.2659, 138.0010
842.7480, 140.2002
843.2302, 142.0361
843.7123, 129.6865
844.1944, 92.61426
844.6765, 78.31250
845.1586, 111.5156
845.6407, 130.4775
846.1229, 93.18457
846.6050, 48.24707
847.0871, 49.02832
847.5692, 92.88281
848.0513, 123.7666
848.5334, 138.7764
849.0156, 136.3311
849.4977, 105.1592
849.9798, 66.23242
850.4619, 19.15137
850.9440, 19.00879
851.4261, 9.032227
851.9083, 64.02539
852.3904, 132.5166
852.8725, 154.1602
853.3546, 147.5986
853.8367, 119.9121
854.3188, 83.62402
854.8010, 59.09570
855.2831, 51.39258
855.7652, 61.79297
856.2473, 97.03516
856.7294, 134.0771
857.2115, 122.2070
857.6937, 74.91309
858.1758, 54.03906
858.6579, 65.09082
859.1400, 87.69824
859.6221, 114.1025
860.1042, 128.9131
860.5864, 101.7598
861.0685, 34.43262
861.5506, 6.030273
862.0327, 15.31445
862.5148, 2.597656
862.9969, 45.13281
863.4791, 79.30469
863.9612, 45.81055
864.4433, 27.30176
864.9254, 35.21875
865.4075, 74.95801
865.8896, 139.7490
866.3718, 136.0449
866.8539, 116.9863
867.3360, 80.03613
867.8181, 50.45703
868.3002, 68.76562
868.7823, 131.7490
869.2645, 166.9463
869.7466, 138.1152
870.2287, 102.3447
870.7108, 70.96484
871.1929, 47.40039
871.6750, 39.86719
872.1572, 45.14648
872.6393, 57.13184
873.1214, 74.15625
873.6035, 89.16406
874.0856, 99.33008
874.5677, 103.2988
875.0499, 94.01270
875.5320, 78.57910
876.0141, 74.69922
876.4962, 83.15527
876.9783, 84.36719
877.4604, 62.73340
877.9426, 38.79199
878.4247, 51.57715
878.9068, 87.72852
879.3889, 99.67188
879.8710, 86.01074
880.3531, 67.15137
880.8353, 50.77637
881.3174, 40.99414
881.7995, 42.43555
882.2816, 53.87695
882.7637, 77.24902
883.2458, 116.5615
883.7280, 142.8730
884.2101, 151.6357
884.6922, 144.6143
885.1743, 117.3965
885.6564, 81.30176
886.1385, 60.64160
886.6207, 57.26465
887.1028, 62.26074
887.5849, 86.73926
888.0670, 101.5918
888.5491, 93.44824
889.0313, 77.71973
889.5134, 68.86230
889.9955, 64.30078
890.4776, 50.18848
890.9597, 1.427734
891.4418, 12.71875
891.9240, 60.03027
892.4061, 122.5439
892.8882, 107.6777
893.3703, 60.14062
893.8524, 44.62402
894.3345, 67.83203
894.8167, 87.65234
895.2988, 86.90137
895.7809, 79.32129
896.2630, 69.72656
896.7451, 58.91211
897.2272, 43.12402
897.7094, 27.21973
898.1915, 24.53809
898.6736, 39.98535
899.1557, 59.47363
899.6378, 76.11719
900.1199, 86.80566
900.6021, 88.94434
901.0842, 81.79102
901.5663, 54.18066
902.0484, 11.88965
902.5305, 5.349609
903.0126, 31.54785
903.4948, 78.53809
903.9769, 59.10352
904.4590, 1.334961
904.9411, 22.06055
905.4232, 2.773438
905.9053, 33.78027
906.3875, 79.81836
906.8696, 114.7754
907.3517, 117.1621
907.8338, 95.45215
908.3159, 72.93945
908.7980, 48.56934
909.2802, 39.33496
909.7623, 48.91309
910.2444, 60.83398
910.7265, 67.94043
911.2086, 74.14355
911.6907, 80.93457
912.1729, 89.39062
912.6550, 91.65332
913.1371, 87.44922
913.6192, 76.68164
914.1013, 50.88574
914.5834, 35.27051
915.0656, 53.47070
915.5477, 88.61230
916.0298, 99.17969
916.5119, 72.79883
916.9940, 69.48730
917.4761, 114.5420
917.9583, 148.6875
918.4404, 155.8232
918.9225, 147.3701
919.4046, 119.8818
919.8867, 82.27930
920.3688, 69.00293
920.8510, 97.23926
921.3331, 115.3867
921.8152, 110.5840
922.2973, 98.29590
922.7794, 85.20703
923.2615, 75.41016
923.7437, 62.55371
924.2258, 49.21289
924.7079, 52.99805
925.1900, 97.28906
925.6721, 129.5000
926.1542, 129.2549
926.6364, 107.8076
927.1185, 49.97754
927.6006, 12.62695
928.0827, 20.50098
928.5648, 35.42871
929.0469, 86.18457
929.5291, 94.94141
930.0112, 92.03516
930.4933, 97.32422
930.9754, 105.8975
931.4575, 115.5547
931.9396, 122.2900
932.4218, 117.0186
932.9039, 96.56152
933.3860, 70.55859
933.8681, 43.73438
934.3502, 19.09570
934.8323, 2.915039
935.3145, 18.37500
935.7966, 19.59180
936.2787, 4.343750
936.7608, 28.56152
937.2429, 82.06348
937.7250, 131.2930
938.2072, 141.9482
938.6893, 127.0098
939.1714, 114.7656
939.6535, 104.4629
940.1356, 86.54395
940.6177, 60.61133
941.0999, 45.41504
941.5820, 55.49414
942.0641, 77.04883
942.5462, 83.14648
943.0283, 78.16113
943.5104, 87.01855
943.9926, 109.4248
944.4747, 130.8535
944.9568, 147.1514
945.4389, 149.7012
945.9210, 128.8633
946.4031, 92.81934
946.8853, 61.70215
947.3674, 35.48926
947.8495, 20.93066
948.3316, 18.90918
948.8137, 24.17188
949.2958, 35.83496
949.7780, 47.06152
950.2601, 45.44629
950.7422, 34.59961
951.2243, 32.37695
951.7064, 37.56543
952.1885, 66.22461
952.6707, 134.1104
953.1528, 166.5830
953.6349, 115.8193
954.1170, 40.59082
954.5991, 23.30176
955.0812, 60.29883
955.5634, 66.14258
956.0455, 25.89355
956.5276, 0.7939450
957.0097, 1.428711
957.4918, 11.04883
957.9739, 21.98242
958.4561, 35.25195
958.9382, 54.03516
959.4203, 79.22852
959.9024, 97.17773
960.3845, 104.4727
960.8666, 111.3447
961.3488, 116.7666
961.8309, 124.5479
962.3130, 146.9883
962.7951, 166.7549
963.2772, 146.0977
963.7593, 67.84863
964.2415, 36.38086
964.7236, 109.2783
965.2057, 144.8506
965.6878, 71.53906
966.1699, 0.4160160
966.6520, 25.02344
967.1342, 98.76465
967.6163, 107.4121
968.0984, 22.09668
968.5805, 21.94238
969.0626, 3.921875
969.5447, 41.80859
970.0269, 103.8926
970.5090, 148.6904
970.9911, 124.9551
971.4732, 61.84570
971.9553, 41.68066
972.4374, 89.65234
972.9196, 117.0459
973.4017, 105.7402
973.8838, 79.70215
974.3659, 26.01855
974.8480, 21.11035
975.3301, 25.76172
975.8123, 1.262695
976.2944, 22.91211
976.7765, 31.99902
977.2586, 40.08887
977.7407, 51.58887
978.2228, 60.30859
978.7050, 67.41406
979.1871, 67.39648
979.6692, 46.03418
980.1513, 12.69727
980.6334, 1.294922
981.1155, 11.21582
981.5977, 42.08301
982.0798, 127.0938
982.5619, 185.1553
983.0440, 151.2617
983.5261, 85.94629
984.0082, 57.95703
984.4904, 62.57324
984.9725, 49.71777
985.4546, 12.46875
985.9367, 39.95410
986.4188, 37.88574
986.9009, 115.9492
987.3831, 129.9541
987.8652, 112.6240
988.3473, 95.11035
988.8294, 85.42578
989.3115, 96.78613
989.7936, 150.5547
990.2758, 173.9297
990.7579, 101.3301
991.2400, 27.70703
991.7221, 24.51270
992.2042, 48.78906
992.6863, 40.66113
993.1685, 2.142578
993.6506, 20.96582
994.1327, 10.81641
994.6148, 11.16895
995.0969, 46.86719
995.5790, 78.42285
996.0612, 89.57617
996.5433, 91.99805
997.0254, 104.2354
997.5075, 123.6895
997.9896, 128.1426
998.4717, 102.8115
998.9539, 83.63379
999.4360, 95.04590
999.9181, 110.1562
1000.400, 114.3525
1000.882, 108.4053
1001.364, 88.59570
1001.847, 60.19238
1002.329, 41.92676
1002.811, 39.40820
1003.293, 50.11719
1003.775, 91.02051
1004.257, 125.1230
1004.739, 122.3418
1005.221, 100.4297
1005.703, 76.12695
1006.186, 56.07129
1006.668, 51.64258
1007.150, 74.01270
1007.632, 89.54004
1008.114, 76.50879
1008.596, 61.76660
1009.078, 61.86133
1009.560, 71.04297
1010.043, 81.08203
1010.525, 89.15723
1011.007, 91.60938
1011.489, 86.81836
1011.971, 78.00293
1012.453, 54.45020
1012.935, 41.31641
1013.417, 72.03125
1013.899, 107.6943
1014.382, 95.05664
1014.864, 46.98242
1015.346, 21.12500
1015.828, 37.06152
1016.310, 59.44922
1016.792, 89.25293
1017.274, 104.8574
1017.756, 76.96875
1018.239, 42.77246
1018.721, 45.83594
1019.203, 76.28613
1019.685, 92.78027
1020.167, 81.50586
1020.649, 78.30566
1021.131, 111.9150
1021.613, 134.9717
1022.095, 116.8701
1022.578, 85.77148
1023.060, 63.39941
1023.542, 50.74414
1024.024, 41.54199
1024.506, 32.62891
1024.988, 44.10742
1025.470, 114.8916
1025.952, 162.3721
1026.435, 131.5879
1026.917, 87.89648
1027.399, 85.65234
1027.881, 106.8525
1028.363, 103.2910
1028.845, 64.14551
1029.327, 41.46875
1029.809, 64.89941
1030.292, 77.86719
1030.774, 53.26270
1031.256, 25.23438
1031.738, 8.912109
1032.220, 8.575195
1032.702, 37.78027
1033.184, 102.7705
1033.666, 138.5684
1034.148, 104.6055
1034.630, 87.13672
1035.113, 121.7305
1035.595, 153.2461
1036.077, 145.0957
1036.559, 118.0840
1037.041, 102.1807
1037.523, 98.00195
1038.005, 97.49219
1038.487, 113.1484
1038.970, 111.8721
1039.452, 58.79688
1039.934, 35.96484
1040.416, 105.8223
1040.898, 190.8750
1041.380, 199.4053
1041.862, 139.5029
1042.344, 99.75488
1042.826, 89.88086
1043.309, 77.02734
1043.791, 51.03027
1044.273, 42.53125
1044.755, 69.31250
1045.237, 99.15137
1045.719, 93.71094
1046.201, 64.93164
1046.683, 73.21289
1047.166, 141.8535
1047.648, 165.5312
1048.130, 130.4932
1048.612, 86.58203
1049.094, 41.27051
1049.576, 10.28027
1050.058, 8.922852
1050.540, 29.49512
1051.022, 53.41602
1051.505, 80.83496
1051.987, 100.9092
1052.469, 113.1172
1052.951, 119.6016
1053.433, 120.8232
1053.915, 113.9238
1054.397, 94.27832
1054.879, 74.08887
1055.361, 79.08887
1055.844, 105.8438
1056.326, 111.0371
1056.808, 94.77734
1057.290, 84.22559
1057.772, 84.03027
1058.254, 86.88086
1058.736, 88.89160
1059.218, 91.29004
1059.701, 96.69531
1060.183, 103.0850
1060.665, 104.4619
1061.147, 100.6592
1061.629, 90.27441
1062.111, 73.44727
1062.593, 48.27734
1063.075, 14.96387
1063.557, 3.101563
1064.040, 26.18652
1064.522, 65.51172
1065.004, 27.31934
1065.486, 47.75098
1065.968, 49.41992
1066.450, 6.868164
1066.932, 37.91504
1067.414, 24.01660
1067.896, 5.086914
1068.379, 7.250977
1068.861, 19.44238
1069.343, 35.09863
1069.825, 48.51270
1070.307, 44.24512
1070.789, 34.48926
1071.271, 51.69531
1071.753, 91.01855
1072.236, 109.1504
1072.718, 83.89062
1073.200, 54.43750
1073.682, 49.32324
1074.164, 51.71680
1074.646, 42.85742
1075.128, 36.52539
1075.610, 55.69043
1076.093, 91.79590
1076.575, 121.8262
1077.057, 140.8223
1077.539, 139.2324
1078.021, 88.06641
1078.503, 50.17480
1078.985, 68.87988
1079.467, 96.77051
1079.949, 90.54004
1080.432, 71.05566
1080.914, 84.23730
1081.396, 132.0586
1081.878, 150.7666
1082.360, 95.33008
1082.842, 62.12012
1083.324, 89.52051
1083.806, 112.8281
1084.288, 92.14746
1084.771, 60.80664
1085.253, 57.03223
1085.735, 75.25586
1086.217, 87.91602
1086.699, 94.64355
1087.181, 96.72363
1087.663, 94.26367
1088.145, 85.75293
1088.628, 63.35742
1089.110, 50.22754
1089.592, 71.77637
1090.074, 103.7920
1090.556, 88.92969
1091.038, 24.45312
1091.520, 7.194336
1092.002, 1.414063
1092.484, 10.35840
1092.967, 23.64844
1093.449, 40.68457
1093.931, 63.95605
1094.413, 84.93457
1094.895, 93.80078
1095.377, 90.41309
1095.859, 71.87305
1096.341, 39.81055
1096.823, 3.663086
1097.306, 52.82617
1097.788, 50.63672
1098.270, 17.27246
1098.752, 74.70703
1099.234, 56.26758
1099.716, 15.17676
1100.198, 38.73145
1100.680, 95.96191
1101.163, 135.0430
1101.645, 150.4834
1102.127, 124.0029
1102.609, 65.10742
1103.091, 20.48730
1103.573, 12.53418
1104.055, 18.77539
1104.537, 27.52441
1105.020, 34.97754
1105.502, 35.69434
1105.984, 34.33691
1106.466, 46.97852
1106.948, 68.38574
1107.430, 84.92773
1107.912, 93.62305
1108.394, 97.42969
1108.876, 101.0273
1109.359, 94.51758
1109.841, 60.20703
1110.323, 30.47363
1110.805, 20.77539
1111.287, 30.08398
1111.769, 66.82617
1112.251, 122.2363
1112.733, 155.3330
1113.215, 157.3359
1113.698, 149.2266
1114.180, 127.9541
1114.662, 102.2471
1115.144, 63.80762
1115.626, 36.24609
1116.108, 42.57715
1116.590, 62.14062
1117.072, 66.19629
1117.555, 54.70801
1118.037, 63.30176
1118.519, 99.47168
1119.001, 110.7910
1119.483, 86.76953
1119.965, 65.11230
1120.447, 61.22266
1120.929, 68.69727
1121.411, 83.01074
1121.894, 99.40332
1122.376, 99.45020
1122.858, 88.36523
1123.340, 101.4463
1123.822, 135.8525
1124.304, 142.3672
1124.786, 111.0596
1125.268, 89.36035
1125.750, 105.0195
1126.233, 128.7861
1126.715, 122.9551
1127.197, 109.8525
1127.679, 125.0967
1128.161, 151.9541
1128.643, 172.7100
1129.125, 178.5469
1129.607, 145.5000
1130.090, 73.53027
1130.572, 24.64258
1131.054, 40.02637
1131.536, 67.49219
1132.018, 97.69434
1132.500, 111.0391
1132.982, 80.86035
1133.464, 35.92285
1133.947, 3.105469
1134.429, 12.50684
1134.911, 1.643555
1135.393, 48.96094
1135.875, 84.08105
1136.357, 93.45898
1136.839, 94.83496
1137.321, 81.88086
1137.803, 76.56836
1138.286, 103.2979
1138.768, 129.0049
1139.250, 94.81250
1139.732, 12.71289
1140.214, 4.001953
1140.696, 82.02930
1141.178, 130.9648
1141.660, 142.5244
1142.142, 128.8252
1142.625, 91.44531
1143.107, 72.13965
1143.589, 107.3252
1144.071, 159.1133
1144.553, 156.2422
1145.035, 118.1621
1145.517, 103.4199
1145.999, 105.1396
1146.482, 101.6279
1146.964, 90.18359
1147.446, 71.74707
1147.928, 48.12598
1148.410, 37.08398
1148.892, 55.89062
1149.374, 86.37500
1149.856, 118.6553
1150.339, 146.0996
1150.821, 164.2139
1151.303, 169.3145
1151.785, 148.1406
1152.267, 108.8389
1152.749, 88.18262
1153.231, 102.1660
1153.713, 106.9482
1154.195, 70.97363
1154.677, 53.73633
1155.160, 94.69336
1155.642, 133.7969
1156.124, 128.9688
1156.606, 104.4102
1157.088, 99.54980
1157.570, 112.4590
1158.052, 123.4873
1158.534, 134.5029
1159.017, 133.5859
1159.499, 118.2695
1159.981, 100.5225
1160.463, 82.66602
1160.945, 76.72461
1161.427, 95.30566
1161.909, 110.7109
1162.391, 53.12988
1162.874, 37.33301
1163.356, 2.764648
1163.838, 111.3066
1164.320, 155.7246
1164.802, 128.9395
1165.284, 104.0566
1165.766, 104.6260
1166.248, 106.2744
1166.730, 89.91797
1167.213, 76.66016
1167.695, 98.43555
1168.177, 115.8408
1168.659, 69.09375
1169.141, 15.13770
1169.623, 45.70508
1170.105, 130.4941
1170.587, 158.5742
1171.069, 101.8154
1171.552, 62.45605
1172.034, 84.04199
1172.516, 82.42871
1172.998, 8.217773
1173.480, 36.93164
1173.962, 11.93164
1174.444, 78.27637
1174.926, 79.58496
1175.409, 35.82520
1175.891, 11.50391
1176.373, 5.687500
1176.855, 44.66406
1177.337, 130.3652
1177.819, 178.5059
1178.301, 173.4932
1178.783, 129.2227
1179.266, 52.31055
1179.748, 13.72559
1180.230, 19.74316
1180.712, 8.090820
1181.194, 37.42578
1181.676, 64.66504
1182.158, 89.26172
1182.640, 103.9023
1183.122, 83.31348
1183.604, 37.43750
1184.087, 17.70996
1184.569, 46.67578
1185.051, 77.54785
1185.533, 97.37598
1186.015, 103.6992
1186.497, 73.92285
1186.979, 52.08691
1187.461, 83.59082
1187.944, 132.3516
1188.426, 149.7656
1188.908, 136.0449
1189.390, 102.0039
1189.872, 29.84766
1190.354, 1.450195
1190.836, 27.93652
1191.318, 47.40137
1191.801, 44.19531
1192.283, 45.67773
1192.765, 66.91016
1193.247, 95.54688
1193.729, 118.1162
1194.211, 133.7217
1194.693, 141.1865
1195.175, 139.7168
1195.657, 121.8193
1196.140, 94.22461
1196.622, 75.50879
1197.104, 68.57910
1197.586, 65.88184
1198.068, 64.01270
1198.550, 66.84180
1199.032, 86.52344
1199.514, 99.02539
1199.996, 78.22363
1200.479, 57.52051
1200.961, 73.80078
1201.443, 100.6631
1201.925, 93.49609
1202.407, 56.00391
1202.889, 33.87598
1203.371, 27.30273
1203.853, 26.76660
1204.336, 28.13965
1204.818, 32.17969
1205.300, 41.74219
1205.782, 35.88086
1206.264, 2.112305
1206.746, 23.17090
1207.228, 42.33301
1207.710, 144.1260
1208.193, 148.7012
1208.675, 84.29199
1209.157, 39.44824
1209.639, 16.59766
1210.121, 32.71387
1210.603, 76.86426
1211.085, 93.86816
1211.567, 59.39551
1212.049, 28.76953
1212.531, 49.53027
1213.014, 69.91992
1213.496, 62.25879
1213.978, 47.01172
1214.460, 36.53516
1214.942, 28.61914
1215.424, 16.14648
1215.906, 3.596680
1216.388, 9.546875
1216.871, 39.33789
1217.353, 51.55957
1217.835, 42.37402
1218.317, 27.56348
1218.799, 6.414063
1219.281, 2.643555
1219.763, 27.34180
1220.245, 55.91895
1220.728, 66.59863
1221.210, 65.37305
1221.692, 56.98828
1222.174, 47.94434
1222.656, 54.24414
1223.138, 69.21387
1223.620, 80.19824
1224.102, 86.11426
1224.584, 89.71094
1225.067, 85.93652
1225.549, 86.89941
1226.031, 90.87695
1226.513, 86.44434
1226.995, 62.31348
1227.477, 39.09277
1227.959, 24.01953
1228.441, 15.04395
1228.923, 8.138672
1229.406, 8.566406
1229.888, 29.98047
1230.370, 69.02832
1230.852, 70.96289
1231.334, 32.87402
1231.816, 16.83691
1232.298, 24.97070
1232.780, 31.66895
1233.263, 30.92773
1233.745, 35.68359
1234.227, 53.73340
1234.709, 71.99512
1235.191, 72.97363
1235.673, 71.29590
1236.155, 87.84082
1236.637, 106.2061
1237.120, 109.9141
1237.602, 100.9014
1238.084, 78.40918
1238.566, 48.42090
1239.048, 33.22656
1239.530, 42.40527
1240.012, 40.10840
1240.494, 8.362305
1240.976, 1.220703
1241.458, 26.72266
1241.941, 49.25586
1242.423, 26.48730
1242.905, 0.0000000E+00
##END=



